time_s,ecg_mv
0.00000,-0.00746
0.00400,0.02537
0.00800,0.04972
0.01200,0.00338
0.01600,0.06209
0.02000,0.04121
0.02400,0.02744
0.02800,0.03722
0.03200,0.04400
0.03600,0.03369
0.04000,0.05447
0.04400,0.01860
0.04800,0.02382
0.05200,0.05322
0.05600,0.03320
0.06000,0.01533
0.06400,0.05214
0.06800,0.06279
0.07200,0.02486
0.07600,0.00643
0.08000,0.03161
0.08400,0.03159
0.08800,0.02888
0.09200,0.06321
0.09600,0.01484
0.10000,0.06086
0.10400,0.01055
0.10800,0.02045
0.11200,0.04909
0.11600,0.05929
0.12000,0.05417
0.12400,0.04416
0.12800,0.04036
0.13200,0.04083
0.13600,0.04955
0.14000,0.03478
0.14400,0.04412
0.14800,0.05028
0.15200,0.03910
0.15600,0.05463
0.16000,0.05092
0.16400,0.08008
0.16800,0.04662
0.17200,0.03183
0.17600,0.03318
0.18000,0.04063
0.18400,0.05962
0.18800,0.03466
0.19200,0.04937
0.19600,0.07865
0.20000,-0.00914
0.20400,0.01992
0.20800,0.04753
0.21200,0.05087
0.21600,0.04792
0.22000,0.03477
0.22400,0.05674
0.22800,0.04953
0.23200,0.03369
0.23600,0.09297
0.24000,0.05172
0.24400,0.03377
0.24800,0.04311
0.25200,0.04083
0.25600,0.04432
0.26000,-0.00875
0.26400,0.03631
0.26800,0.06646
0.27200,0.02315
0.27600,0.04542
0.28000,0.06606
0.28400,0.06435
0.28800,0.07728
0.29200,0.01366
0.29600,0.04086
0.30000,0.04136
0.30400,0.06090
0.30800,0.07054
0.31200,-0.00463
0.31600,0.07117
0.32000,0.02091
0.32400,0.06414
0.32800,0.02145
0.33200,0.05592
0.33600,0.07782
0.34000,0.05299
0.34400,0.06254
0.34800,0.07824
0.35200,0.06967
0.35600,0.07071
0.36000,0.10991
0.36400,0.10808
0.36800,0.09006
0.37200,0.16039
0.37600,0.09242
0.38000,0.14339
0.38400,0.12886
0.38800,0.14466
0.39200,0.16221
0.39600,0.15648
0.40000,0.16628
0.40400,0.12189
0.40800,0.11872
0.41200,0.15552
0.41600,0.11652
0.42000,0.10657
0.42400,0.08836
0.42800,0.13362
0.43200,0.11408
0.43600,0.12018
0.44000,0.06450
0.44400,0.07691
0.44800,0.04885
0.45200,0.08283
0.45600,0.09612
0.46000,0.04419
0.46400,0.09154
0.46800,0.07898
0.47200,0.05495
0.47600,0.01865
0.48000,0.08601
0.48400,0.05588
0.48800,0.04577
0.49200,0.06591
0.49600,0.06623
0.50000,0.08814
0.50400,0.03793
0.50800,0.08121
0.51200,0.08840
0.51600,0.08786
0.52000,0.05536
0.52400,0.04423
0.52800,0.07956
0.53200,0.06141
0.53600,0.06110
0.54000,0.08569
0.54400,0.04871
0.54800,0.00173
0.55200,0.02927
0.55600,-0.01539
0.56000,0.02021
0.56400,-0.00386
0.56800,-0.02107
0.57200,0.02377
0.57600,0.12173
0.58000,0.24709
0.58400,0.46865
0.58800,0.66997
0.59200,0.90984
0.59600,1.07230
0.60000,1.11974
0.60400,0.99407
0.60800,0.83821
0.61200,0.53519
0.61600,0.29744
0.62000,0.06642
0.62400,-0.02091
0.62800,-0.14569
0.63200,-0.14250
0.63600,-0.12849
0.64000,-0.08780
0.64400,-0.05676
0.64800,-0.00246
0.65200,0.05783
0.65600,0.04300
0.66000,0.06552
0.66400,0.08268
0.66800,0.06357
0.67200,0.04584
0.67600,0.06304
0.68000,0.09894
0.68400,0.04839
0.68800,0.07396
0.69200,0.11155
0.69600,0.11376
0.70000,0.10568
0.70400,0.13048
0.70800,0.12782
0.71200,0.11237
0.71600,0.11745
0.72000,0.15003
0.72400,0.19655
0.72800,0.18315
0.73200,0.19366
0.73600,0.21418
0.74000,0.21718
0.74400,0.26369
0.74800,0.26028
0.75200,0.30820
0.75600,0.26957
0.76000,0.33757
0.76400,0.33045
0.76800,0.31438
0.77200,0.37505
0.77600,0.35956
0.78000,0.32204
0.78400,0.34771
0.78800,0.36666
0.79200,0.34447
0.79600,0.35945
0.80000,0.34668
0.80400,0.33094
0.80800,0.30844
0.81200,0.31168
0.81600,0.28051
0.82000,0.25826
0.82400,0.18947
0.82800,0.23134
0.83200,0.22249
0.83600,0.17414
0.84000,0.15554
0.84400,0.18980
0.84800,0.10319
0.85200,0.13642
0.85600,0.16553
0.86000,0.08980
0.86400,0.11466
0.86800,0.13224
0.87200,0.08677
0.87600,0.09597
0.88000,0.09917
0.88400,0.06007
0.88800,0.07406
0.89200,0.07984
0.89600,0.08904
0.90000,0.07073
0.90400,0.06666
0.90800,0.04961
0.91200,0.06227
0.91600,0.08694
0.92000,0.07089
0.92400,0.05161
0.92800,0.05172
0.93200,0.12180
0.93600,0.09121
0.94000,0.08112
0.94400,0.01649
0.94800,0.08076
0.95200,0.07794
0.95600,0.10200
0.96000,0.07687
0.96400,0.06697
0.96800,0.07876
0.97200,0.02943
0.97600,0.08898
0.98000,0.07481
0.98400,0.05426
0.98800,0.09481
0.99200,0.10448
0.99600,0.04023
1.00000,0.05494
1.00400,0.07408
1.00800,0.07191
1.01200,0.06026
1.01600,0.04873
1.02000,0.11061
1.02400,0.08893
1.02800,0.04427
1.03200,0.04124
1.03600,0.10217
1.04000,0.08787
1.04400,0.10448
1.04800,0.08424
1.05200,0.05056
1.05600,0.07319
1.06000,0.02474
1.06400,0.05295
1.06800,0.06670
1.07200,0.07829
1.07600,0.05325
1.08000,0.06528
1.08400,0.07689
1.08800,0.07522
1.09200,0.08040
1.09600,0.07177
1.10000,0.06107
1.10400,0.08328
1.10800,0.06844
1.11200,0.05088
1.11600,0.05483
1.12000,0.06729
1.12400,0.06505
1.12800,0.07033
1.13200,0.06712
1.13600,0.07059
1.14000,0.06433
1.14400,0.04179
1.14800,0.07532
1.15200,0.08791
1.15600,0.07546
1.16000,0.06292
1.16400,0.07556
1.16800,0.04725
1.17200,0.02857
1.17600,0.06762
1.18000,0.04774
1.18400,0.08108
1.18800,0.04452
1.19200,0.01356
1.19600,0.04526
1.20000,0.09753
1.20400,0.05825
1.20800,0.03842
1.21200,0.05046
1.21600,0.07606
1.22000,0.07549
1.22400,0.06901
1.22800,0.09506
1.23200,0.07942
1.23600,0.06479
1.24000,0.07705
1.24400,0.09811
1.24800,0.08435
1.25200,0.08531
1.25600,0.04308
1.26000,0.06167
1.26400,0.07914
1.26800,0.05851
1.27200,0.08572
1.27600,0.07616
1.28000,0.08230
1.28400,0.05978
1.28800,0.11485
1.29200,0.08862
1.29600,0.05941
1.30000,0.06542
1.30400,0.11541
1.30800,0.05655
1.31200,0.08081
1.31600,0.08288
1.32000,0.06337
1.32400,0.03993
1.32800,0.06715
1.33200,0.07086
1.33600,0.08674
1.34000,0.08058
1.34400,0.06659
1.34800,0.08489
1.35200,0.08101
1.35600,0.07757
1.36000,0.07877
1.36400,0.07809
1.36800,0.10310
1.37200,0.07582
1.37600,0.09282
1.38000,0.11470
1.38400,0.09485
1.38800,0.12482
1.39200,0.10209
1.39600,0.13612
1.40000,0.16690
1.40400,0.17044
1.40800,0.15915
1.41200,0.15419
1.41600,0.12664
1.42000,0.18550
1.42400,0.15148
1.42800,0.15403
1.43200,0.10483
1.43600,0.10896
1.44000,0.06680
1.44400,0.11003
1.44800,0.10532
1.45200,0.04197
1.45600,0.07331
1.46000,0.08247
1.46400,0.03111
1.46800,0.02717
1.47200,0.04039
1.47600,0.04765
1.48000,0.03113
1.48400,0.05907
1.48800,0.06288
1.49200,0.07017
1.49600,0.07122
1.50000,0.08699
1.50400,0.08001
1.50800,0.03030
1.51200,0.04625
1.51600,0.03498
1.52000,0.03449
1.52400,0.05423
1.52800,0.05579
1.53200,0.06530
1.53600,0.02351
1.54000,0.03009
1.54400,0.05356
1.54800,0.04830
1.55200,0.04251
1.55600,0.04083
1.56000,0.01592
1.56400,0.02949
1.56800,0.00438
1.57200,-0.01882
1.57600,-0.02946
1.58000,0.01298
1.58400,0.04282
1.58800,0.21775
1.59200,0.43441
1.59600,0.63235
1.60000,0.88393
1.60400,1.03602
1.60800,1.05027
1.61200,0.99246
1.61600,0.80399
1.62000,0.57125
1.62400,0.32037
1.62800,0.09367
1.63200,-0.07091
1.63600,-0.13584
1.64000,-0.15577
1.64400,-0.12248
1.64800,-0.09417
1.65200,-0.07252
1.65600,-0.04766
1.66000,0.00080
1.66400,0.01326
1.66800,0.01831
1.67200,0.04569
1.67600,0.04275
1.68000,0.05788
1.68400,0.06906
1.68800,0.05335
1.69200,0.11166
1.69600,0.06304
1.70000,0.09669
1.70400,0.08330
1.70800,0.11053
1.71200,0.04923
1.71600,0.09156
1.72000,0.12269
1.72400,0.14229
1.72800,0.19076
1.73200,0.16548
1.73600,0.20071
1.74000,0.20740
1.74400,0.22862
1.74800,0.23782
1.75200,0.24243
1.75600,0.27329
1.76000,0.25831
1.76400,0.31907
1.76800,0.28907
1.77200,0.32639
1.77600,0.37348
1.78000,0.33366
1.78400,0.34276
1.78800,0.36693
1.79200,0.34250
1.79600,0.32117
1.80000,0.33503
1.80400,0.33144
1.80800,0.32161
1.81200,0.27759
1.81600,0.31212
1.82000,0.29324
1.82400,0.24231
1.82800,0.22898
1.83200,0.19670
1.83600,0.21555
1.84000,0.15581
1.84400,0.16691
1.84800,0.12843
1.85200,0.10996
1.85600,0.12532
1.86000,0.12606
1.86400,0.08895
1.86800,0.06666
1.87200,0.08870
1.87600,0.06488
1.88000,0.06650
1.88400,0.08608
1.88800,0.07439
1.89200,0.03818
1.89600,0.09167
1.90000,0.04397
1.90400,0.05794
1.90800,0.02792
1.91200,0.03889
1.91600,0.00392
1.92000,0.07394
1.92400,0.06495
1.92800,0.01285
1.93200,0.00665
1.93600,0.00398
1.94000,0.05961
1.94400,0.02663
1.94800,0.03435
1.95200,0.02906
1.95600,0.03266
1.96000,0.01310
1.96400,0.03513
1.96800,0.00567
1.97200,0.03279
1.97600,0.04018
1.98000,0.04315
1.98400,0.02895
1.98800,0.01530
1.99200,0.03636
1.99600,0.02326
2.00000,0.06406
2.00400,0.04789
2.00800,0.03002
2.01200,0.02270
2.01600,0.01786
2.02000,0.01296
2.02400,0.02443
2.02800,0.03718
2.03200,0.04138
2.03600,0.04224
2.04000,0.07263
2.04400,0.01635
2.04800,0.03050
2.05200,0.08592
2.05600,-0.00752
2.06000,0.01918
2.06400,0.03280
2.06800,0.03229
2.07200,0.03715
2.07600,0.02401
2.08000,0.03590
2.08400,0.02942
2.08800,0.04358
2.09200,-0.00990
2.09600,0.01004
2.10000,0.02749
2.10400,0.00669
2.10800,0.00623
2.11200,0.03947
2.11600,0.01371
2.12000,0.03920
2.12400,0.04121
2.12800,0.03222
2.13200,0.03604
2.13600,0.02358
2.14000,-0.00272
2.14400,0.02466
2.14800,0.03414
2.15200,0.01426
2.15600,0.02265
2.16000,0.03942
2.16400,0.00667
2.16800,0.03683
2.17200,0.06108
2.17600,0.01253
2.18000,0.02635
2.18400,0.02020
2.18800,0.05381
2.19200,0.02913
2.19600,0.04056
2.20000,0.00860
2.20400,0.02187
2.20800,0.02179
2.21200,-0.01373
2.21600,0.05040
2.22000,0.03937
2.22400,-0.01380
2.22800,0.03587
2.23200,0.01816
2.23600,0.02955
2.24000,0.02771
2.24400,-0.00980
2.24800,0.01574
2.25200,0.04963
2.25600,0.00808
2.26000,-0.00108
2.26400,-0.00801
2.26800,-0.00544
2.27200,0.02549
2.27600,0.05243
2.28000,0.02697
2.28400,0.02310
2.28800,0.06266
2.29200,0.00740
2.29600,0.00411
2.30000,0.02797
2.30400,0.02817
2.30800,-0.00329
2.31200,-0.00659
2.31600,0.02244
2.32000,0.02138
2.32400,-0.00988
2.32800,0.01205
2.33200,0.00510
2.33600,0.02505
2.34000,0.01347
2.34400,0.01413
2.34800,0.00898
2.35200,0.03752
2.35600,0.04496
2.36000,0.01092
2.36400,0.03683
2.36800,0.00708
2.37200,0.02684
2.37600,0.04455
2.38000,0.06506
2.38400,0.03349
2.38800,0.04713
2.39200,0.06097
2.39600,0.03622
2.40000,0.07598
2.40400,0.07149
2.40800,0.10112
2.41200,0.07854
2.41600,0.06730
2.42000,0.11114
2.42400,0.11667
2.42800,0.09902
2.43200,0.12387
2.43600,0.09456
2.44000,0.08008
2.44400,0.09270
2.44800,0.04206
2.45200,0.05002
2.45600,0.05364
2.46000,0.06223
2.46400,0.03416
2.46800,0.03685
2.47200,0.01197
2.47600,0.02660
2.48000,0.05029
2.48400,0.00059
2.48800,0.05962
2.49200,-0.00206
2.49600,0.01009
2.50000,0.01243
2.50400,0.02889
2.50800,-0.01676
2.51200,-0.03436
2.51600,0.01950
2.52000,0.02306
2.52400,0.01942
2.52800,0.05936
2.53200,0.01067
2.53600,0.01146
2.54000,0.02479
2.54400,0.01340
2.54800,0.03910
2.55200,-0.01919
2.55600,-0.00235
2.56000,-0.06456
2.56400,0.01884
2.56800,-0.00842
2.57200,0.01087
2.57600,0.02449
2.58000,-0.03436
2.58400,-0.05750
2.58800,-0.07676
2.59200,-0.08248
2.59600,-0.04585
2.60000,0.06034
2.60400,0.18842
2.60800,0.38530
2.61200,0.60928
2.61600,0.84856
2.62000,0.99329
2.62400,1.02533
2.62800,0.96113
2.63200,0.75760
2.63600,0.48938
2.64000,0.28764
2.64400,0.05411
2.64800,-0.12260
2.65200,-0.16093
2.65600,-0.19709
2.66000,-0.21797
2.66400,-0.11735
2.66800,-0.10087
2.67200,-0.05219
2.67600,-0.03721
2.68000,-0.02432
2.68400,-0.03980
2.68800,0.01809
2.69200,0.00385
2.69600,0.00075
2.70000,0.01634
2.70400,0.01394
2.70800,0.02947
2.71200,0.01287
2.71600,0.02478
2.72000,-0.01103
2.72400,0.03065
2.72800,0.06122
2.73200,0.08431
2.73600,0.06149
2.74000,0.07887
2.74400,0.12680
2.74800,0.10365
2.75200,0.14096
2.75600,0.17685
2.76000,0.16172
2.76400,0.20345
2.76800,0.18268
2.77200,0.21864
2.77600,0.22975
2.78000,0.24921
2.78400,0.28352
2.78800,0.32075
2.79200,0.26936
2.79600,0.27827
2.80000,0.30402
2.80400,0.27431
2.80800,0.30370
2.81200,0.30060
2.81600,0.27620
2.82000,0.28236
2.82400,0.22842
2.82800,0.26028
2.83200,0.19827
2.83600,0.19812
2.84000,0.18302
2.84400,0.16784
2.84800,0.17475
2.85200,0.14127
2.85600,0.11438
2.86000,0.11677
2.86400,0.12218
2.86800,0.07655
2.87200,0.07091
2.87600,0.07688
2.88000,0.04727
2.88400,0.00735
2.88800,0.07516
2.89200,0.06298
2.89600,-0.02641
2.90000,0.00790
2.90400,0.01322
2.90800,0.02108
2.91200,0.01262
2.91600,-0.00823
2.92000,-0.02548
2.92400,-0.00363
2.92800,0.01396
2.93200,-0.02931
2.93600,-0.02870
2.94000,-0.00916
2.94400,-0.04783
2.94800,-0.01463
2.95200,-0.01844
2.95600,-0.00093
2.96000,-0.02419
2.96400,-0.02799
2.96800,-0.01841
2.97200,-0.01169
2.97600,-0.02414
2.98000,-0.01075
2.98400,0.00386
2.98800,0.01242
2.99200,0.02267
2.99600,-0.02724
3.00000,-0.02011
3.00400,-0.06151
3.00800,0.02599
3.01200,-0.02663
3.01600,-0.01294
3.02000,-0.00196
3.02400,-0.03972
3.02800,-0.00341
3.03200,-0.01335
3.03600,-0.04948
3.04000,-0.00726
3.04400,0.01065
3.04800,-0.05073
3.05200,0.00263
3.05600,-0.00946
3.06000,-0.00429
3.06400,-0.00509
3.06800,0.01202
3.07200,-0.01867
3.07600,0.00314
3.08000,-0.02267
3.08400,-0.00005
3.08800,-0.03102
3.09200,-0.01704
3.09600,0.01961
3.10000,-0.00623
3.10400,-0.01845
3.10800,-0.03831
3.11200,-0.03135
3.11600,-0.01181
3.12000,0.00297
3.12400,-0.00743
3.12800,-0.00561
3.13200,-0.01706
3.13600,0.01068
3.14000,-0.02431
3.14400,-0.02762
3.14800,0.00100
3.15200,-0.01562
3.15600,-0.02260
3.16000,-0.02868
3.16400,-0.02243
3.16800,-0.00496
3.17200,-0.01049
3.17600,-0.04189
3.18000,-0.00930
3.18400,-0.01438
3.18800,-0.03810
3.19200,-0.00277
3.19600,-0.02397
3.20000,-0.02520
3.20400,-0.00271
3.20800,0.00766
3.21200,-0.03266
3.21600,-0.01026
3.22000,-0.03668
3.22400,0.02700
3.22800,-0.02930
3.23200,0.00435
3.23600,-0.03263
3.24000,-0.00359
3.24400,0.02443
3.24800,-0.07089
3.25200,-0.02888
3.25600,-0.01030
3.26000,-0.02227
3.26400,-0.03386
3.26800,0.02251
3.27200,-0.01893
3.27600,-0.05329
3.28000,-0.00307
3.28400,-0.05412
3.28800,0.00409
3.29200,-0.02931
3.29600,-0.01315
3.30000,0.01156
3.30400,-0.00807
3.30800,-0.03405
3.31200,-0.03486
3.31600,0.02914
3.32000,0.02782
3.32400,0.00518
3.32800,0.04789
3.33200,0.05017
3.33600,0.06259
3.34000,0.01320
3.34400,0.05984
3.34800,0.08965
3.35200,0.08990
3.35600,0.09400
3.36000,0.02582
3.36400,0.07450
3.36800,0.07494
3.37200,0.10836
3.37600,0.02925
3.38000,0.03207
3.38400,0.02957
3.38800,0.03712
3.39200,0.00178
3.39600,0.02580
3.40000,-0.01959
3.40400,-0.00404
3.40800,-0.02439
3.41200,-0.01417
3.41600,-0.03381
3.42000,-0.05391
3.42400,-0.00153
3.42800,-0.01835
3.43200,-0.03632
3.43600,-0.02165
3.44000,-0.00624
3.44400,-0.04587
3.44800,-0.02875
3.45200,-0.01595
3.45600,-0.01637
3.46000,-0.03374
3.46400,-0.06932
3.46800,-0.00246
3.47200,-0.02089
3.47600,-0.02733
3.48000,-0.03332
3.48400,-0.02269
3.48800,-0.03684
3.49200,-0.04960
3.49600,-0.04561
3.50000,-0.04627
3.50400,-0.05318
3.50800,-0.07505
3.51200,-0.05476
3.51600,-0.11181
3.52000,-0.08674
3.52400,-0.11915
3.52800,-0.05928
3.53200,0.04199
3.53600,0.15873
3.54000,0.33638
3.54400,0.58077
3.54800,0.80032
3.55200,0.91586
3.55600,0.98318
3.56000,0.91829
3.56400,0.71849
3.56800,0.48129
3.57200,0.24051
3.57600,0.02747
3.58000,-0.11798
3.58400,-0.20334
3.58800,-0.24232
3.59200,-0.21960
3.59600,-0.18748
3.60000,-0.14628
3.60400,-0.10607
3.60800,-0.10808
3.61200,-0.06039
3.61600,-0.04168
3.62000,-0.05316
3.62400,-0.02954
3.62800,-0.01550
3.63200,-0.02622
3.63600,0.02168
3.64000,-0.06837
3.64400,-0.01602
3.64800,-0.04315
3.65200,0.01922
3.65600,0.06010
3.66000,-0.03442
3.66400,0.02807
3.66800,0.04712
3.67200,0.04324
3.67600,0.07417
3.68000,0.03334
3.68400,0.11138
3.68800,0.11880
3.69200,0.12948
3.69600,0.13528
3.70000,0.17779
3.70400,0.17294
3.70800,0.20394
3.71200,0.20491
3.71600,0.18421
3.72000,0.24057
3.72400,0.25497
3.72800,0.27313
3.73200,0.24483
3.73600,0.26306
3.74000,0.27443
3.74400,0.26041
3.74800,0.27496
3.75200,0.27994
3.75600,0.20962
3.76000,0.17507
3.76400,0.21471
3.76800,0.21107
3.77200,0.18104
3.77600,0.16060
3.78000,0.11368
3.78400,0.09385
3.78800,0.10859
3.79200,0.05618
3.79600,0.02281
3.80000,0.02501
3.80400,0.08198
3.80800,0.05912
3.81200,-0.00324
3.81600,-0.01297
3.82000,-0.00142
3.82400,-0.02757
3.82800,0.00810
3.83200,-0.02426
3.83600,-0.04821
3.84000,-0.00341
3.84400,-0.04377
3.84800,-0.02970
3.85200,-0.03599
3.85600,-0.04330
3.86000,-0.03153
3.86400,-0.05267
3.86800,-0.07635
3.87200,-0.08412
3.87600,-0.06570
3.88000,-0.05587
3.88400,-0.04143
3.88800,-0.04010
3.89200,-0.03029
3.89600,-0.03920
3.90000,-0.05763
3.90400,-0.05610
3.90800,-0.08445
3.91200,-0.04560
3.91600,-0.03266
3.92000,-0.03190
3.92400,-0.04506
3.92800,-0.04625
3.93200,-0.02418
3.93600,-0.04273
3.94000,-0.02842
3.94400,-0.03166
3.94800,-0.03918
3.95200,-0.01745
3.95600,-0.05517
3.96000,-0.05102
3.96400,-0.06014
3.96800,-0.06006
3.97200,-0.01312
3.97600,-0.00919
3.98000,-0.04405
3.98400,-0.03328
3.98800,-0.02127
3.99200,-0.02876
3.99600,-0.02093
4.00000,-0.07043
4.00400,-0.05809
4.00800,-0.03638
4.01200,-0.01686
4.01600,-0.04362
4.02000,-0.06300
4.02400,-0.05305
4.02800,-0.05931
4.03200,-0.06339
4.03600,-0.01633
4.04000,-0.05900
4.04400,-0.04621
4.04800,-0.00350
4.05200,-0.02318
4.05600,-0.04028
4.06000,-0.05937
4.06400,-0.03906
4.06800,-0.01496
4.07200,-0.03506
4.07600,-0.02242
4.08000,-0.04582
4.08400,-0.03758
4.08800,-0.05206
4.09200,-0.03963
4.09600,-0.02228
4.10000,-0.07704
4.10400,-0.04980
4.10800,-0.04387
4.11200,-0.06022
4.11600,-0.05509
4.12000,-0.03332
4.12400,-0.00915
4.12800,-0.03672
4.13200,-0.04291
4.13600,-0.08058
4.14000,-0.01113
4.14400,-0.04826
4.14800,-0.05060
4.15200,-0.07242
4.15600,-0.05131
4.16000,-0.07222
4.16400,-0.04900
4.16800,-0.04121
4.17200,-0.05004
4.17600,-0.04518
4.18000,-0.06793
4.18400,-0.02240
4.18800,-0.06415
4.19200,-0.08752
4.19600,-0.05494
4.20000,-0.06643
4.20400,-0.07123
4.20800,-0.05786
4.21200,-0.04446
4.21600,-0.07315
4.22000,-0.05108
4.22400,-0.01807
4.22800,-0.03054
4.23200,-0.04400
4.23600,-0.03418
4.24000,-0.03383
4.24400,-0.02595
4.24800,-0.00281
4.25200,-0.01080
4.25600,-0.04782
4.26000,0.00939
4.26400,0.00146
4.26800,0.04103
4.27200,0.02332
4.27600,0.04427
4.28000,0.08846
4.28400,0.02514
4.28800,0.02220
4.29200,0.01263
4.29600,-0.01303
4.30000,-0.01045
4.30400,0.02543
4.30800,-0.00426
4.31200,-0.03864
4.31600,-0.04037
4.32000,-0.00710
4.32400,-0.04271
4.32800,-0.04120
4.33200,-0.03277
4.33600,-0.01669
4.34000,-0.00846
4.34400,-0.02926
4.34800,-0.04898
4.35200,-0.04957
4.35600,-0.01820
4.36000,-0.02637
4.36400,-0.06164
4.36800,-0.04662
4.37200,-0.05028
4.37600,-0.05516
4.38000,-0.06636
4.38400,-0.08302
4.38800,-0.06728
4.39200,-0.08759
4.39600,-0.03233
4.40000,-0.04617
4.40400,-0.08112
4.40800,-0.02920
4.41200,-0.03946
4.41600,-0.09579
4.42000,-0.02153
4.42400,-0.04382
4.42800,-0.02221
4.43200,-0.09468
4.43600,-0.07034
4.44000,-0.08805
4.44400,-0.11057
4.44800,-0.12545
4.45200,-0.10668
4.45600,-0.12506
4.46000,-0.03913
4.46400,0.09804
4.46800,0.31115
4.47200,0.53905
4.47600,0.77612
4.48000,0.92732
4.48400,0.96747
4.48800,0.87306
4.49200,0.69066
4.49600,0.47043
4.50000,0.21284
4.50400,-0.01405
4.50800,-0.17069
4.51200,-0.21214
4.51600,-0.27647
4.52000,-0.23422
4.52400,-0.18689
4.52800,-0.17317
4.53200,-0.11375
4.53600,-0.12362
4.54000,-0.06112
4.54400,-0.06479
4.54800,-0.09293
4.55200,-0.04312
4.55600,-0.07103
4.56000,-0.02460
4.56400,-0.06067
4.56800,-0.04670
4.57200,-0.03332
4.57600,-0.04031
4.58000,-0.02212
4.58400,-0.03092
4.58800,0.00227
4.59200,-0.00108
4.59600,0.01433
4.60000,-0.03232
4.60400,0.05989
4.60800,0.05245
4.61200,0.03238
4.61600,0.08705
4.62000,0.11223
4.62400,0.14239
4.62800,0.11740
4.63200,0.18770
4.63600,0.17050
4.64000,0.23730
4.64400,0.20060
4.64800,0.22927
4.65200,0.21816
4.65600,0.21039
4.66000,0.25905
4.66400,0.25670
4.66800,0.26781
4.67200,0.24969
4.67600,0.21379
4.68000,0.18211
4.68400,0.19013
4.68800,0.17544
4.69200,0.15683
4.69600,0.16778
4.70000,0.14491
4.70400,0.11479
4.70800,0.10548
4.71200,0.08129
4.71600,0.07127
4.72000,0.06576
4.72400,0.05468
4.72800,0.00777
4.73200,-0.02136
4.73600,0.02595
4.74000,-0.01035
4.74400,0.00071
4.74800,-0.06181
4.75200,-0.04196
4.75600,-0.04021
4.76000,-0.07406
4.76400,-0.05922
4.76800,-0.03739
4.77200,-0.03270
4.77600,-0.02428
4.78000,-0.07492
4.78400,-0.08682
4.78800,-0.04927
4.79200,-0.04154
4.79600,-0.05699
4.80000,-0.08725
4.80400,-0.04585
4.80800,-0.04584
4.81200,-0.05076
4.81600,-0.07167
4.82000,-0.05592
4.82400,-0.04623
4.82800,-0.07324
4.83200,-0.09896
4.83600,-0.05552
4.84000,-0.05248
4.84400,-0.06182
4.84800,-0.04430
4.85200,-0.07381
4.85600,-0.06371
4.86000,-0.06815
4.86400,-0.05061
4.86800,-0.03010
4.87200,-0.06702
4.87600,-0.02088
4.88000,-0.03138
4.88400,-0.04612
4.88800,-0.05017
4.89200,-0.02647
4.89600,-0.06547
4.90000,-0.06407
4.90400,-0.08306
4.90800,-0.05232
4.91200,-0.03485
4.91600,-0.05107
4.92000,-0.05322
4.92400,-0.06566
4.92800,-0.05822
4.93200,-0.09007
4.93600,-0.04056
4.94000,-0.06969
4.94400,-0.08355
4.94800,-0.07644
4.95200,-0.07786
4.95600,-0.04422
4.96000,-0.04011
4.96400,-0.08838
4.96800,-0.04266
4.97200,-0.04337
4.97600,-0.07267
4.98000,-0.09076
4.98400,-0.07588
4.98800,-0.07359
4.99200,-0.05401
4.99600,-0.06796
5.00000,-0.10131
5.00400,-0.05601
5.00800,-0.09131
5.01200,-0.04245
5.01600,-0.08463
5.02000,-0.07429
5.02400,-0.07745
5.02800,-0.07115
5.03200,-0.03427
5.03600,-0.04311
5.04000,-0.04805
5.04400,-0.05362
5.04800,-0.09089
5.05200,-0.07027
5.05600,-0.07082
5.06000,-0.07925
5.06400,-0.04944
5.06800,-0.07436
5.07200,-0.07365
5.07600,-0.08026
5.08000,-0.10044
5.08400,-0.04730
5.08800,-0.03250
5.09200,-0.05553
5.09600,-0.07847
5.10000,-0.11294
5.10400,-0.05529
5.10800,-0.03433
5.11200,-0.05261
5.11600,-0.03991
5.12000,-0.02879
5.12400,-0.03571
5.12800,-0.06697
5.13200,-0.03697
5.13600,-0.04238
5.14000,-0.08847
5.14400,-0.06564
5.14800,-0.08575
5.15200,-0.05911
5.15600,-0.04486
5.16000,-0.07708
5.16400,-0.09583
5.16800,-0.02733
5.17200,-0.04380
5.17600,-0.01928
5.18000,-0.07170
5.18400,-0.01956
5.18800,0.00625
5.19200,0.01159
5.19600,-0.02497
5.20000,-0.00664
5.20400,-0.00565
5.20800,0.02720
5.21200,0.03765
5.21600,0.02763
5.22000,0.00648
5.22400,0.05451
5.22800,0.03414
5.23200,0.05752
5.23600,0.04908
5.24000,0.07270
5.24400,0.05723
5.24800,0.01797
5.25200,0.02524
5.25600,0.04415
5.26000,-0.01140
5.26400,-0.00117
5.26800,0.00550
5.27200,-0.00068
5.27600,-0.02185
5.28000,-0.06389
5.28400,-0.06689
5.28800,-0.03992
5.29200,-0.03949
5.29600,0.00203
5.30000,-0.06729
5.30400,-0.02804
5.30800,-0.03582
5.31200,-0.08489
5.31600,-0.06790
5.32000,-0.04820
5.32400,-0.06132
5.32800,-0.05442
5.33200,-0.04179
5.33600,-0.06723
5.34000,-0.04155
5.34400,-0.06343
5.34800,-0.06143
5.35200,-0.03963
5.35600,-0.06169
5.36000,-0.04438
5.36400,-0.01819
5.36800,-0.05011
5.37200,-0.05496
5.37600,-0.04054
5.38000,-0.06884
5.38400,-0.05049
5.38800,-0.11310
5.39200,-0.09288
5.39600,-0.12949
5.40000,-0.13382
5.40400,-0.04961
5.40800,-0.02084
5.41200,0.17178
5.41600,0.34647
5.42000,0.59150
5.42400,0.76080
5.42800,0.95781
5.43200,1.00810
5.43600,0.89667
5.44000,0.70959
5.44400,0.51346
5.44800,0.21436
5.45200,-0.01100
5.45600,-0.16304
5.46000,-0.22020
5.46400,-0.24362
5.46800,-0.22899
5.47200,-0.16060
5.47600,-0.15920
5.48000,-0.10529
5.48400,-0.05634
5.48800,-0.08539
5.49200,-0.03166
5.49600,-0.00792
5.50000,-0.06668
5.50400,-0.05793
5.50800,-0.05351
5.51200,-0.06624
5.51600,-0.01629
5.52000,-0.05775
5.52400,-0.00505
5.52800,0.02067
5.53200,-0.03294
5.53600,0.00200
5.54000,-0.01977
5.54400,0.04576
5.54800,0.02834
5.55200,0.05199
5.55600,0.07383
5.56000,0.10015
5.56400,0.09971
5.56800,0.12498
5.57200,0.13212
5.57600,0.16372
5.58000,0.15597
5.58400,0.19790
5.58800,0.17400
5.59200,0.21725
5.59600,0.27779
5.60000,0.25118
5.60400,0.23190
5.60800,0.26693
5.61200,0.24409
5.61600,0.22926
5.62000,0.24336
5.62400,0.26582
5.62800,0.24915
5.63200,0.22760
5.63600,0.19709
5.64000,0.17854
5.64400,0.21039
5.64800,0.17079
5.65200,0.12899
5.65600,0.08793
5.66000,0.08521
5.66400,0.14522
5.66800,0.05672
5.67200,0.06323
5.67600,0.05524
5.68000,0.03547
5.68400,0.02196
5.68800,-0.00970
5.69200,-0.01173
5.69600,0.03581
5.70000,-0.01923
5.70400,0.00771
5.70800,-0.04727
5.71200,-0.02227
5.71600,-0.01426
5.72000,-0.00086
5.72400,-0.04565
5.72800,-0.01249
5.73200,-0.01755
5.73600,-0.04063
5.74000,-0.01672
5.74400,-0.04444
5.74800,-0.04250
5.75200,-0.02694
5.75600,-0.08076
5.76000,-0.02854
5.76400,-0.04617
5.76800,-0.05521
5.77200,-0.03422
5.77600,-0.01022
5.78000,-0.03330
5.78400,0.00037
5.78800,-0.04787
5.79200,-0.05064
5.79600,0.00691
5.80000,-0.01586
5.80400,-0.00465
5.80800,-0.03980
5.81200,-0.00689
5.81600,-0.01749
5.82000,-0.00943
5.82400,-0.02160
5.82800,0.00231
5.83200,-0.03451
5.83600,-0.04051
5.84000,-0.05050
5.84400,0.00256
5.84800,-0.03513
5.85200,-0.04093
5.85600,-0.03857
5.86000,-0.02838
5.86400,-0.04461
5.86800,-0.02470
5.87200,-0.03114
5.87600,-0.02932
5.88000,-0.03719
5.88400,-0.01697
5.88800,-0.02663
5.89200,-0.01481
5.89600,-0.01183
5.90000,-0.00971
5.90400,-0.06000
5.90800,-0.02663
5.91200,-0.03153
5.91600,0.00017
5.92000,-0.04657
5.92400,-0.02900
5.92800,-0.02029
5.93200,-0.02083
5.93600,0.00602
5.94000,-0.02236
5.94400,0.00609
5.94800,-0.04221
5.95200,-0.04884
5.95600,0.01209
5.96000,-0.00327
5.96400,-0.00193
5.96800,-0.00891
5.97200,-0.00139
5.97600,-0.03508
5.98000,0.00851
5.98400,-0.02080
5.98800,0.00986
5.99200,-0.00779
5.99600,-0.04871
6.00000,-0.03467
6.00400,0.01393
6.00800,-0.01105
6.01200,-0.01592
6.01600,-0.00285
6.02000,-0.01590
6.02400,-0.01798
6.02800,-0.00473
6.03200,-0.00359
6.03600,0.02417
6.04000,-0.00494
6.04400,0.03205
6.04800,0.03081
6.05200,0.02940
6.05600,0.01661
6.06000,-0.00170
6.06400,-0.00126
6.06800,-0.00655
6.07200,-0.01801
6.07600,-0.00441
6.08000,-0.01559
6.08400,0.03033
6.08800,0.00853
6.09200,-0.01077
6.09600,-0.03984
6.10000,-0.00229
6.10400,-0.00923
6.10800,-0.02229
6.11200,-0.02297
6.11600,-0.04488
6.12000,0.01190
6.12400,-0.00034
6.12800,0.05315
6.13200,0.00161
6.13600,0.00016
6.14000,0.03321
6.14400,0.00862
6.14800,0.01143
6.15200,0.00349
6.15600,0.00248
6.16000,0.04921
6.16400,0.04496
6.16800,0.06614
6.17200,0.03278
6.17600,0.04930
6.18000,0.04072
6.18400,0.08766
6.18800,0.05029
6.19200,0.09862
6.19600,0.11719
6.20000,0.12969
6.20400,0.08670
6.20800,0.12886
6.21200,0.09183
6.21600,0.08754
6.22000,0.07064
6.22400,0.11288
6.22800,0.11417
6.23200,0.06008
6.23600,0.04741
6.24000,0.04680
6.24400,0.09541
6.24800,0.05799
6.25200,0.02080
6.25600,-0.00935
6.26000,0.00905
6.26400,0.04319
6.26800,0.05457
6.27200,0.01035
6.27600,0.00085
6.28000,0.00389
6.28400,-0.02393
6.28800,0.03186
6.29200,-0.00796
6.29600,0.03516
6.30000,-0.02005
6.30400,-0.01105
6.30800,0.02039
6.31200,-0.00038
6.31600,0.03081
6.32000,0.01564
6.32400,-0.00773
6.32800,0.02849
6.33200,0.03315
6.33600,-0.02173
6.34000,0.05311
6.34400,0.02617
6.34800,0.03015
6.35200,-0.02535
6.35600,-0.00872
6.36000,-0.01183
6.36400,0.00150
6.36800,-0.06694
6.37200,-0.06933
6.37600,-0.09074
6.38000,-0.02203
6.38400,0.07097
6.38800,0.17090
6.39200,0.38955
6.39600,0.64081
6.40000,0.88028
6.40400,1.01544
6.40800,1.04130
6.41200,0.94392
6.41600,0.76201
6.42000,0.51969
6.42400,0.28246
6.42800,0.06525
6.43200,-0.04824
6.43600,-0.15444
6.44000,-0.20267
6.44400,-0.13260
6.44800,-0.10693
6.45200,-0.08144
6.45600,-0.05994
6.46000,-0.05364
6.46400,-0.01640
6.46800,0.03521
6.47200,0.00885
6.47600,0.00353
6.48000,0.03749
6.48400,0.04174
6.48800,0.05246
6.49200,0.05746
6.49600,0.07728
6.50000,0.03796
6.50400,0.08099
6.50800,0.04946
6.51200,0.09209
6.51600,0.09208
6.52000,0.10497
6.52400,0.13241
6.52800,0.12695
6.53200,0.16500
6.53600,0.17679
6.54000,0.17941
6.54400,0.18341
6.54800,0.19807
6.55200,0.22098
6.55600,0.24548
6.56000,0.26625
6.56400,0.34238
6.56800,0.30995
6.57200,0.32500
6.57600,0.30252
6.58000,0.31303
6.58400,0.32555
6.58800,0.33751
6.59200,0.31170
6.59600,0.36045
6.60000,0.30993
6.60400,0.33314
6.60800,0.25291
6.61200,0.28556
6.61600,0.27572
6.62000,0.25726
6.62400,0.24795
6.62800,0.22362
6.63200,0.20336
6.63600,0.14470
6.64000,0.15136
6.64400,0.10273
6.64800,0.14718
6.65200,0.12701
6.65600,0.10449
6.66000,0.08084
6.66400,0.07584
6.66800,0.11586
6.67200,0.10627
6.67600,0.06431
6.68000,0.08608
6.68400,0.02432
6.68800,0.01393
6.69200,0.04023
6.69600,0.03023
6.70000,0.03488
6.70400,0.04856
6.70800,0.10437
6.71200,0.02999
6.71600,0.04374
6.72000,0.04799
6.72400,0.04162
6.72800,0.06086
6.73200,0.07776
6.73600,0.01745
6.74000,0.04566
6.74400,0.03726
6.74800,0.04983
6.75200,0.01224
6.75600,0.00789
6.76000,-0.00310
6.76400,0.05393
6.76800,0.04745
6.77200,0.04528
6.77600,-0.00334
6.78000,0.03672
6.78400,0.02927
6.78800,0.01629
6.79200,0.02645
6.79600,0.05890
6.80000,0.05601
6.80400,0.04486
6.80800,0.05579
6.81200,0.03362
6.81600,0.04729
6.82000,0.04685
6.82400,0.05732
6.82800,0.04501
6.83200,0.04372
6.83600,0.04407
6.84000,0.03404
6.84400,0.09178
6.84800,0.05757
6.85200,0.05603
6.85600,0.09346
6.86000,0.07585
6.86400,0.01683
6.86800,0.06203
6.87200,0.06505
6.87600,0.08616
6.88000,0.07493
6.88400,0.06419
6.88800,0.02540
6.89200,0.03169
6.89600,0.05464
6.90000,0.05951
6.90400,0.02914
6.90800,0.04203
6.91200,0.04187
6.91600,0.05124
6.92000,0.05691
6.92400,0.04459
6.92800,0.02574
6.93200,0.07548
6.93600,0.08269
6.94000,0.04879
6.94400,0.07155
6.94800,0.06008
6.95200,0.06453
6.95600,0.06111
6.96000,0.03635
6.96400,0.06323
6.96800,0.07210
6.97200,0.03410
6.97600,0.09148
6.98000,0.09408
6.98400,0.08888
6.98800,0.09233
6.99200,0.06752
6.99600,0.04604
7.00000,0.04093
7.00400,0.03679
7.00800,0.05549
7.01200,0.05264
7.01600,0.06682
7.02000,0.01314
7.02400,0.09989
7.02800,0.09930
7.03200,0.05334
7.03600,0.06752
7.04000,0.06362
7.04400,0.05969
7.04800,0.05016
7.05200,0.05199
7.05600,0.03806
7.06000,0.05822
7.06400,0.05428
7.06800,0.06128
7.07200,0.03788
7.07600,0.05589
7.08000,0.05619
7.08400,0.06747
7.08800,0.03431
7.09200,0.06421
7.09600,0.07582
7.10000,0.06858
7.10400,0.04995
7.10800,0.04849
7.11200,0.05498
7.11600,0.07621
7.12000,0.09530
7.12400,0.06452
7.12800,0.05925
7.13200,0.08513
7.13600,0.08833
7.14000,0.07382
7.14400,0.08593
7.14800,0.10806
7.15200,0.13327
7.15600,0.10559
7.16000,0.11803
7.16400,0.15609
7.16800,0.12757
7.17200,0.15804
7.17600,0.16425
7.18000,0.15378
7.18400,0.13199
7.18800,0.14533
7.19200,0.13231
7.19600,0.13687
7.20000,0.10390
7.20400,0.13290
7.20800,0.06830
7.21200,0.08972
7.21600,0.08580
7.22000,0.09838
7.22400,0.06162
7.22800,0.08042
7.23200,0.05487
7.23600,0.07849
7.24000,0.09669
7.24400,0.05267
7.24800,0.06871
7.25200,0.04075
7.25600,0.07842
7.26000,0.08298
7.26400,0.05936
7.26800,0.03591
7.27200,0.06665
7.27600,0.08159
7.28000,0.08043
7.28400,0.07493
7.28800,0.02209
7.29200,0.04513
7.29600,0.08720
7.30000,0.03425
7.30400,0.08135
7.30800,0.09616
7.31200,0.07313
7.31600,0.07876
7.32000,0.04634
7.32400,0.02205
7.32800,0.03372
7.33200,0.01635
7.33600,0.00139
7.34000,0.00212
7.34400,-0.01347
7.34800,0.02593
7.35200,0.11157
7.35600,0.24329
7.36000,0.47675
7.36400,0.67768
7.36800,0.88823
7.37200,1.03571
7.37600,1.07230
7.38000,1.03153
7.38400,0.82063
7.38800,0.54803
7.39200,0.30463
7.39600,0.09959
7.40000,-0.05467
7.40400,-0.10295
7.40800,-0.16919
7.41200,-0.11864
7.41600,-0.08831
7.42000,-0.07256
7.42400,-0.01038
7.42800,0.01581
7.43200,0.04772
7.43600,0.04135
7.44000,0.06407
7.44400,0.02944
7.44800,0.04446
7.45200,0.08483
7.45600,0.09317
7.46000,0.07582
7.46400,0.06857
7.46800,0.10758
7.47200,0.05048
7.47600,0.08384
7.48000,0.12200
7.48400,0.13162
7.48800,0.10927
7.49200,0.10484
7.49600,0.18559
7.50000,0.17479
7.50400,0.17006
7.50800,0.20622
7.51200,0.24094
7.51600,0.18918
7.52000,0.28133
7.52400,0.29166
7.52800,0.25218
7.53200,0.32496
7.53600,0.28808
7.54000,0.35863
7.54400,0.35365
7.54800,0.39796
7.55200,0.34511
7.55600,0.35889
7.56000,0.37821
7.56400,0.33999
7.56800,0.33140
7.57200,0.32816
7.57600,0.32192
7.58000,0.28753
7.58400,0.30305
7.58800,0.28723
7.59200,0.26001
7.59600,0.27440
7.60000,0.21567
7.60400,0.23052
7.60800,0.17626
7.61200,0.18599
7.61600,0.11694
7.62000,0.14557
7.62400,0.12537
7.62800,0.10758
7.63200,0.09519
7.63600,0.09167
7.64000,0.07665
7.64400,0.04074
7.64800,0.06725
7.65200,0.06367
7.65600,0.06047
7.66000,0.04678
7.66400,0.06279
7.66800,0.07926
7.67200,0.05703
7.67600,0.05099
7.68000,0.08706
7.68400,0.07873
7.68800,0.07707
7.69200,0.08132
7.69600,0.05134
7.70000,0.05504
7.70400,0.07970
7.70800,0.04619
7.71200,0.05475
7.71600,0.06459
7.72000,0.06439
7.72400,0.05133
7.72800,0.07644
7.73200,0.05314
7.73600,0.07114
7.74000,0.07797
7.74400,0.06968
7.74800,0.07110
7.75200,0.03316
7.75600,0.03007
7.76000,0.04385
7.76400,0.06566
7.76800,0.08610
7.77200,0.03157
7.77600,0.06208
7.78000,0.03879
7.78400,0.04116
7.78800,0.05021
7.79200,0.06950
7.79600,0.05985
7.80000,0.07911
7.80400,0.03573
7.80800,0.07315
7.81200,0.07389
7.81600,0.05661
7.82000,0.06469
7.82400,0.04380
7.82800,0.03319
7.83200,0.04681
7.83600,0.04198
7.84000,0.11256
7.84400,0.04497
7.84800,0.08760
7.85200,0.05856
7.85600,0.06068
7.86000,0.06922
7.86400,0.03869
7.86800,0.07252
7.87200,0.06164
7.87600,0.02371
7.88000,0.06597
7.88400,0.06491
7.88800,0.06283
7.89200,0.08539
7.89600,0.04532
7.90000,0.06376
7.90400,0.06840
7.90800,0.03534
7.91200,0.07726
7.91600,0.02416
7.92000,0.02709
7.92400,0.06345
7.92800,0.03113
7.93200,0.05050
7.93600,0.01983
7.94000,0.05403
7.94400,0.02988
7.94800,0.05930
7.95200,0.02172
7.95600,0.06126
7.96000,0.04686
7.96400,0.05338
7.96800,0.05066
7.97200,0.05453
7.97600,0.02540
7.98000,0.00043
7.98400,0.05232
7.98800,0.03283
7.99200,0.04236
7.99600,0.05989
8.00000,0.01156
8.00400,0.03591
8.00800,0.03887
8.01200,0.02984
8.01600,0.05743
8.02000,0.04801
8.02400,0.03434
8.02800,0.03102
8.03200,0.06685
8.03600,0.03756
8.04000,0.06260
8.04400,0.06017
8.04800,0.01381
8.05200,0.03081
8.05600,0.05374
8.06000,0.06226
8.06400,0.07344
8.06800,0.07715
8.07200,0.08603
8.07600,0.06318
8.08000,0.07291
8.08400,0.10019
8.08800,0.08468
8.09200,0.12355
8.09600,0.08020
8.10000,0.13449
8.10400,0.12672
8.10800,0.09839
8.11200,0.16311
8.11600,0.15335
8.12000,0.14872
8.12400,0.12540
8.12800,0.13380
8.13200,0.16735
8.13600,0.11283
8.14000,0.05097
8.14400,0.09363
8.14800,0.07700
8.15200,0.08892
8.15600,0.07497
8.16000,0.05683
8.16400,0.05158
8.16800,0.08385
8.17200,0.02960
8.17600,0.09412
8.18000,0.04148
8.18400,0.02857
8.18800,0.06476
8.19200,0.05930
8.19600,0.02646
8.20000,0.06180
8.20400,0.00968
8.20800,0.02774
8.21200,0.06855
8.21600,0.04075
8.22000,0.01969
8.22400,0.05589
8.22800,0.06383
8.23200,0.04494
8.23600,0.00914
8.24000,0.03823
8.24400,0.05339
8.24800,0.06022
8.25200,0.08156
8.25600,0.03869
8.26000,0.03241
8.26400,0.03780
8.26800,0.05612
8.27200,0.00225
8.27600,0.03160
8.28000,-0.06759
8.28400,-0.01096
8.28800,-0.03931
8.29200,0.01593
8.29600,0.10138
8.30000,0.20414
8.30400,0.42242
8.30800,0.65780
8.31200,0.88231
8.31600,1.00516
8.32000,1.04875
8.32400,0.94983
8.32800,0.85196
8.33200,0.54918
8.33600,0.29474
8.34000,0.05562
8.34400,-0.04409
8.34800,-0.15238
8.35200,-0.13440
8.35600,-0.12871
8.36000,-0.10814
8.36400,-0.05195
8.36800,-0.05116
8.37200,-0.00653
8.37600,0.00835
8.38000,0.00704
8.38400,0.04031
8.38800,0.04172
8.39200,0.07660
8.39600,-0.01626
8.40000,0.04045
8.40400,0.03916
8.40800,0.05263
8.41200,0.07562
8.41600,0.08155
8.42000,0.08146
8.42400,0.08004
8.42800,0.10933
8.43200,0.11788
8.43600,0.08641
8.44000,0.13190
8.44400,0.12474
8.44800,0.14476
8.45200,0.18838
8.45600,0.20434
8.46000,0.22343
8.46400,0.22167
8.46800,0.25280
8.47200,0.25543
8.47600,0.29698
8.48000,0.31717
8.48400,0.35058
8.48800,0.35055
8.49200,0.31627
8.49600,0.32756
8.50000,0.31933
8.50400,0.34261
8.50800,0.37155
8.51200,0.33874
8.51600,0.27060
8.52000,0.27715
8.52400,0.26217
8.52800,0.28244
8.53200,0.25509
8.53600,0.24320
8.54000,0.25459
8.54400,0.18417
8.54800,0.16585
8.55200,0.20485
8.55600,0.15599
8.56000,0.11826
8.56400,0.07917
8.56800,0.07646
8.57200,0.04659
8.57600,0.08671
8.58000,0.07737
8.58400,0.08871
8.58800,0.05956
8.59200,0.04299
8.59600,0.03747
8.60000,0.08654
8.60400,0.01013
8.60800,0.04643
8.61200,0.04147
8.61600,0.05170
8.62000,0.03002
8.62400,0.04711
8.62800,0.05267
8.63200,0.03280
8.63600,0.02611
8.64000,0.03116
8.64400,0.01528
8.64800,0.03017
8.65200,0.02807
8.65600,0.03814
8.66000,0.06049
8.66400,0.05978
8.66800,0.02458
8.67200,0.04542
8.67600,0.03914
8.68000,0.04836
8.68400,0.03344
8.68800,0.03821
8.69200,0.02340
8.69600,0.01697
8.70000,0.04999
8.70400,0.05842
8.70800,0.04557
8.71200,0.04093
8.71600,0.03743
8.72000,0.02299
8.72400,-0.00378
8.72800,0.04503
8.73200,0.03564
8.73600,0.02046
8.74000,0.01213
8.74400,0.05687
8.74800,-0.00488
8.75200,0.06632
8.75600,0.04377
8.76000,0.07828
8.76400,0.01639
8.76800,0.03020
8.77200,0.02039
8.77600,0.03351
8.78000,0.02609
8.78400,0.01521
8.78800,0.05156
8.79200,0.01425
8.79600,0.01968
8.80000,0.04081
8.80400,0.01886
8.80800,0.02080
8.81200,0.03650
8.81600,0.02191
8.82000,0.00422
8.82400,0.02699
8.82800,0.02452
8.83200,0.06290
8.83600,0.00675
8.84000,0.04796
8.84400,0.01274
8.84800,0.02122
8.85200,0.02169
8.85600,0.03352
8.86000,0.04526
8.86400,0.06288
8.86800,0.01503
8.87200,0.05424
8.87600,0.04744
8.88000,0.04366
8.88400,0.01211
8.88800,0.04519
8.89200,0.02491
8.89600,0.03401
8.90000,0.02144
8.90400,0.03999
8.90800,0.04889
8.91200,0.04909
8.91600,0.02225
8.92000,0.04614
8.92400,0.05515
8.92800,0.00729
8.93200,0.05532
8.93600,-0.00095
8.94000,0.03649
8.94400,0.03740
8.94800,0.05505
8.95200,0.03085
8.95600,0.01554
8.96000,0.00910
8.96400,-0.00011
8.96800,0.04011
8.97200,0.01993
8.97600,0.01020
8.98000,0.03507
8.98400,0.00901
8.98800,0.01545
8.99200,0.01489
8.99600,0.05703
9.00000,0.05307
9.00400,0.02053
9.00800,-0.00785
9.01200,0.02898
9.01600,0.02476
9.02000,0.03018
9.02400,0.03439
9.02800,0.01654
9.03200,0.04133
9.03600,0.03945
9.04000,0.02680
9.04400,0.01436
9.04800,0.01277
9.05200,0.03616
9.05600,0.00028
9.06000,0.01911
9.06400,0.00742
9.06800,-0.00519
9.07200,0.03522
9.07600,0.02340
9.08000,0.02580
9.08400,0.04428
9.08800,-0.00069
9.09200,0.03108
9.09600,0.04240
9.10000,0.05856
9.10400,0.02664
9.10800,0.07018
9.11200,0.06874
9.11600,0.10067
9.12000,0.10586
9.12400,0.10349
9.12800,0.14420
9.13200,0.10871
9.13600,0.10600
9.14000,0.11126
9.14400,0.10041
9.14800,0.11724
9.15200,0.07639
9.15600,0.10625
9.16000,0.10868
9.16400,0.11099
9.16800,0.07454
9.17200,0.09946
9.17600,0.04919
9.18000,0.05077
9.18400,0.00812
9.18800,0.02376
9.19200,0.01760
9.19600,0.05813
9.20000,0.03581
9.20400,0.00123
9.20800,0.03124
9.21200,0.02878
9.21600,0.01378
9.22000,0.01806
9.22400,0.01112
9.22800,0.00610
9.23200,-0.01822
9.23600,0.01441
9.24000,0.04107
9.24400,0.04378
9.24800,0.01021
9.25200,0.00091
9.25600,0.01122
9.26000,0.03273
9.26400,0.02191
9.26800,0.00349
9.27200,0.02173
9.27600,0.01025
9.28000,0.02354
9.28400,0.00381
9.28800,-0.02048
9.29200,0.00275
9.29600,0.00550
9.30000,-0.04657
9.30400,-0.04521
9.30800,-0.04033
9.31200,-0.06368
9.31600,-0.03656
9.32000,0.09653
9.32400,0.21326
9.32800,0.41343
9.33200,0.60376
9.33600,0.87154
9.34000,0.96061
9.34400,1.02756
9.34800,0.97174
9.35200,0.79606
9.35600,0.50386
9.36000,0.25515
9.36400,0.05819
9.36800,-0.13142
9.37200,-0.16049
9.37600,-0.18352
9.38000,-0.18579
9.38400,-0.12950
9.38800,-0.08284
9.39200,-0.05440
9.39600,-0.02141
9.40000,0.01769
9.40400,-0.00849
9.40800,0.01143
9.41200,0.00273
9.41600,0.03618
9.42000,0.01104
9.42400,0.03120
9.42800,0.02823
9.43200,0.03119
9.43600,0.06841
9.44000,0.03972
9.44400,0.07619
9.44800,0.07331
9.45200,0.09272
9.45600,0.07516
9.46000,0.10884
9.46400,0.11933
9.46800,0.10784
9.47200,0.14104
9.47600,0.15033
9.48000,0.16976
9.48400,0.21358
9.48800,0.19245
9.49200,0.19145
9.49600,0.20710
9.50000,0.24761
9.50400,0.25790
9.50800,0.28264
9.51200,0.30298
9.51600,0.33314
9.52000,0.30939
9.52400,0.31369
9.52800,0.28889
9.53200,0.30965
9.53600,0.31724
9.54000,0.30685
9.54400,0.23091
9.54800,0.27145
9.55200,0.26887
9.55600,0.23711
9.56000,0.17442
9.56400,0.17901
9.56800,0.17794
9.57200,0.15665
9.57600,0.11566
9.58000,0.09769
9.58400,0.11808
9.58800,0.05959
9.59200,0.10006
9.59600,0.06128
9.60000,0.05647
9.60400,0.01607
9.60800,0.02257
9.61200,0.04073
9.61600,-0.00642
9.62000,0.05712
9.62400,-0.01361
9.62800,-0.01326
9.63200,0.00852
9.63600,0.01489
9.64000,0.01806
9.64400,-0.00452
9.64800,-0.00243
9.65200,-0.00384
9.65600,-0.01104
9.66000,-0.05012
9.66400,0.01749
9.66800,0.00344
9.67200,0.00132
9.67600,-0.01410
9.68000,0.00255
9.68400,-0.00278
9.68800,-0.00423
9.69200,0.01828
9.69600,-0.03627
9.70000,0.00146
9.70400,-0.02408
9.70800,-0.00990
9.71200,0.02481
9.71600,-0.02501
9.72000,-0.00630
9.72400,-0.01595
9.72800,0.01346
9.73200,-0.02380
9.73600,-0.03751
9.74000,0.00449
9.74400,-0.01239
9.74800,-0.01192
9.75200,0.01477
9.75600,-0.02324
9.76000,-0.01357
9.76400,-0.00376
9.76800,0.00114
9.77200,-0.01693
9.77600,0.01267
9.78000,0.03564
9.78400,-0.01546
9.78800,0.02809
9.79200,-0.04854
9.79600,0.01879
9.80000,-0.01505
9.80400,-0.00601
9.80800,-0.01538
9.81200,-0.02129
9.81600,-0.03381
9.82000,-0.01706
9.82400,0.01521
9.82800,0.01200
9.83200,-0.01680
9.83600,-0.02046
9.84000,-0.02401
9.84400,-0.03378
9.84800,0.02369
9.85200,0.00158
9.85600,-0.00913
9.86000,-0.02103
9.86400,-0.03143
9.86800,0.01327
9.87200,0.00277
9.87600,-0.03074
9.88000,0.00633
9.88400,-0.03414
9.88800,-0.00076
9.89200,-0.03176
9.89600,-0.02148
9.90000,-0.00423
9.90400,-0.00566
9.90800,0.00525
9.91200,-0.03046
9.91600,0.01571
9.92000,0.01099
9.92400,-0.01524
9.92800,-0.00633
9.93200,-0.03042
9.93600,-0.01863
9.94000,-0.04128
9.94400,-0.01443
9.94800,-0.01254
9.95200,0.00921
9.95600,0.00139
9.96000,-0.00138
9.96400,-0.02420
9.96800,-0.02179
9.97200,-0.02424
9.97600,-0.01365
9.98000,-0.05520
9.98400,-0.00356
9.98800,-0.04867
9.99200,-0.02870
9.99600,-0.01860
10.00000,-0.02911
10.00400,0.01245
10.00800,-0.02158
10.01200,0.01025
10.01600,0.00238
10.02000,-0.02992
10.02400,-0.01291
10.02800,0.00410
10.03200,-0.02745
10.03600,-0.01959
10.04000,-0.03222
10.04400,-0.02061
10.04800,-0.02875
10.05200,-0.02060
10.05600,-0.00317
10.06000,0.00411
10.06400,-0.02029
10.06800,-0.01919
10.07200,-0.00682
10.07600,-0.02901
10.08000,-0.04390
10.08400,-0.00234
10.08800,-0.04159
10.09200,-0.00562
10.09600,-0.04163
10.10000,0.01270
10.10400,-0.04142
10.10800,-0.00347
10.11200,0.01132
10.11600,-0.03279
10.12000,0.01828
10.12400,-0.02085
10.12800,-0.03260
10.13200,0.02256
10.13600,0.03056
10.14000,0.02230
10.14400,-0.01285
10.14800,0.04389
10.15200,0.04771
10.15600,0.05370
10.16000,0.06108
10.16400,0.03577
10.16800,0.06029
10.17200,0.10423
10.17600,0.09542
10.18000,0.05266
10.18400,0.03807
10.18800,0.05025
10.19200,0.05326
10.19600,0.03686
10.20000,-0.00903
10.20400,0.00768
10.20800,-0.00062
10.21200,0.01752
10.21600,0.00722
10.22000,-0.01026
10.22400,-0.00056
10.22800,-0.03425
10.23200,0.00080
10.23600,-0.03843
10.24000,-0.02378
10.24400,-0.01457
10.24800,-0.05036
10.25200,-0.04678
10.25600,-0.06742
10.26000,-0.03083
10.26400,-0.03533
10.26800,-0.04080
10.27200,-0.02521
10.27600,-0.07564
10.28000,-0.03570
10.28400,-0.03380
10.28800,-0.04082
10.29200,-0.02072
10.29600,-0.00262
10.30000,-0.04529
10.30400,-0.05565
10.30800,-0.05101
10.31200,-0.04124
10.31600,-0.03846
10.32000,-0.07728
10.32400,-0.05727
10.32800,-0.11435
10.33200,-0.09321
10.33600,-0.09990
10.34000,-0.06677
10.34400,0.04650
10.34800,0.14008
10.35200,0.33821
10.35600,0.57925
10.36000,0.80414
10.36400,0.91495
10.36800,0.99063
10.37200,0.89073
10.37600,0.72982
10.38000,0.49575
10.38400,0.21649
10.38800,-0.00033
10.39200,-0.14308
10.39600,-0.28244
10.40000,-0.23245
10.40400,-0.21922
10.40800,-0.18975
10.41200,-0.15856
10.41600,-0.12753
10.42000,-0.08814
10.42400,-0.04162
10.42800,-0.05444
10.43200,-0.01916
10.43600,-0.08988
10.44000,-0.04616
10.44400,-0.02927
10.44800,-0.03180
10.45200,-0.05989
10.45600,-0.03650
10.46000,0.00543
10.46400,-0.03718
10.46800,-0.02409
10.47200,-0.01760
10.47600,0.00268
10.48000,0.03676
10.48400,0.04830
10.48800,0.01169
10.49200,0.09369
10.49600,0.07035
10.50000,0.08737
10.50400,0.14828
10.50800,0.13262
10.51200,0.12832
10.51600,0.15739
10.52000,0.17247
10.52400,0.18260
10.52800,0.20955
10.53200,0.24478
10.53600,0.24432
10.54000,0.21814
10.54400,0.30241
10.54800,0.23118
10.55200,0.25071
10.55600,0.24445
10.56000,0.25100
10.56400,0.22002
10.56800,0.22270
10.57200,0.24000
10.57600,0.18544
10.58000,0.14565
10.58400,0.15480
10.58800,0.11475
10.59200,0.10473
10.59600,0.09746
10.60000,0.08296
10.60400,0.05456
10.60800,0.06092
10.61200,0.02676
10.61600,-0.00746
10.62000,0.02290
10.62400,-0.01117
10.62800,0.01019
10.63200,-0.03339
10.63600,-0.01640
10.64000,-0.02691
10.64400,-0.08939
10.64800,-0.07012
10.65200,-0.06609
10.65600,-0.02015
10.66000,-0.08547
10.66400,-0.03334
10.66800,-0.03123
10.67200,-0.04375
10.67600,-0.04115
10.68000,-0.06429
10.68400,-0.05552
10.68800,-0.05145
10.69200,-0.04805
10.69600,-0.04287
10.70000,-0.06069
10.70400,-0.07042
10.70800,-0.06798
10.71200,-0.04949
10.71600,-0.08946
10.72000,-0.08183
10.72400,-0.06584
10.72800,-0.06872
10.73200,-0.06347
10.73600,-0.10956
10.74000,-0.06515
10.74400,-0.06359
10.74800,-0.04403
10.75200,-0.09710
10.75600,-0.06513
10.76000,-0.05029
10.76400,-0.05016
10.76800,-0.03675
10.77200,-0.03961
10.77600,-0.08018
10.78000,-0.04796
10.78400,-0.06677
10.78800,-0.07591
10.79200,-0.03116
10.79600,-0.07288
10.80000,-0.07734
10.80400,-0.06891
10.80800,-0.07760
10.81200,-0.04201
10.81600,-0.05420
10.82000,-0.03472
10.82400,-0.05388
10.82800,-0.07376
10.83200,-0.04193
10.83600,-0.07480
10.84000,-0.07123
10.84400,-0.06570
10.84800,-0.06185
10.85200,-0.03976
10.85600,-0.07453
10.86000,-0.05623
10.86400,-0.06367
10.86800,-0.08748
10.87200,-0.08446
10.87600,-0.06774
10.88000,-0.05585
10.88400,-0.05759
10.88800,-0.05466
10.89200,-0.06307
10.89600,-0.07275
10.90000,-0.05603
10.90400,-0.08367
10.90800,-0.09035
10.91200,-0.07100
10.91600,-0.09225
10.92000,-0.07473
10.92400,-0.07933
10.92800,-0.07572
10.93200,-0.06601
10.93600,-0.08068
10.94000,-0.07351
10.94400,-0.09843
10.94800,-0.06277
10.95200,-0.08265
10.95600,-0.05798
10.96000,-0.12038
10.96400,-0.08143
10.96800,-0.06138
10.97200,-0.11323
10.97600,-0.07320
10.98000,-0.06453
10.98400,-0.06446
10.98800,-0.09539
10.99200,-0.06219
10.99600,-0.06384
11.00000,-0.08556
11.00400,-0.05252
11.00800,-0.06791
11.01200,-0.06669
11.01600,-0.07580
11.02000,-0.05664
11.02400,-0.06541
11.02800,-0.04542
11.03200,-0.05872
11.03600,-0.07942
11.04000,-0.07188
11.04400,-0.04989
11.04800,-0.07472
11.05200,-0.06029
11.05600,-0.05758
11.06000,-0.07104
11.06400,-0.11238
11.06800,-0.06452
11.07200,-0.06240
11.07600,-0.06308
11.08000,-0.07914
11.08400,-0.03931
11.08800,-0.06282
11.09200,-0.06896
11.09600,-0.06649
11.10000,-0.04032
11.10400,-0.06185
11.10800,-0.05250
11.11200,0.01410
11.11600,0.01005
11.12000,0.01472
11.12400,0.03023
11.12800,0.02416
11.13200,-0.01235
11.13600,0.04921
11.14000,0.05375
11.14400,0.04051
11.14800,-0.00815
11.15200,0.05001
11.15600,0.04647
11.16000,0.00285
11.16400,0.00595
11.16800,0.00895
11.17200,-0.01743
11.17600,-0.00386
11.18000,-0.03220
11.18400,-0.02806
11.18800,-0.04637
11.19200,-0.08211
11.19600,-0.07709
11.20000,0.00016
11.20400,-0.05831
11.20800,-0.04017
11.21200,-0.04482
11.21600,-0.03456
11.22000,-0.05764
11.22400,-0.08033
11.22800,-0.06867
11.23200,-0.10639
11.23600,-0.07292
11.24000,-0.05175
11.24400,-0.11128
11.24800,-0.06555
11.25200,-0.05339
11.25600,-0.04361
11.26000,-0.08733
11.26400,-0.08200
11.26800,-0.10576
11.27200,-0.08922
11.27600,-0.05930
11.28000,-0.03014
11.28400,-0.09409
11.28800,-0.04846
11.29200,-0.07337
11.29600,-0.10206
11.30000,-0.06531
11.30400,-0.17484
11.30800,-0.14135
11.31200,-0.13455
11.31600,-0.06475
11.32000,0.00979
11.32400,0.15919
11.32800,0.31432
11.33200,0.55974
11.33600,0.78491
11.34000,0.92170
11.34400,0.96372
11.34800,0.87303
11.35200,0.68168
11.35600,0.41773
11.36000,0.22581
11.36400,-0.03425
11.36800,-0.21405
11.37200,-0.24733
11.37600,-0.27439
11.38000,-0.25278
11.38400,-0.18357
11.38800,-0.17868
11.39200,-0.14405
11.39600,-0.12432
11.40000,-0.09018
11.40400,-0.08555
11.40800,-0.06532
11.41200,-0.00373
11.41600,-0.05338
11.42000,-0.07461
11.42400,-0.01713
11.42800,-0.03405
11.43200,-0.03042
11.43600,-0.02692
11.44000,-0.01842
11.44400,-0.01363
11.44800,0.00951
11.45200,0.01176
11.45600,0.02985
11.46000,0.00662
11.46400,0.03041
11.46800,0.03155
11.47200,0.08073
11.47600,0.09553
11.48000,0.08817
11.48400,0.12684
11.48800,0.18480
11.49200,0.17561
11.49600,0.14688
11.50000,0.18267
11.50400,0.21110
11.50800,0.21033
11.51200,0.22852
11.51600,0.25133
11.52000,0.23930
11.52400,0.21314
11.52800,0.24705
11.53200,0.22689
11.53600,0.22386
11.54000,0.20086
11.54400,0.17289
11.54800,0.16149
11.55200,0.16323
11.55600,0.13244
11.56000,0.08275
11.56400,0.13999
11.56800,0.07698
11.57200,0.06782
11.57600,0.07526
11.58000,0.00181
11.58400,0.05983
11.58800,0.00486
11.59200,0.02013
11.59600,-0.01333
11.60000,-0.00788
11.60400,-0.02039
11.60800,-0.02985
11.61200,-0.07168
11.61600,-0.06996
11.62000,-0.04645
11.62400,-0.02170
11.62800,-0.06261
11.63200,-0.04386
11.63600,-0.05279
11.64000,-0.04787
11.64400,-0.03896
11.64800,-0.08820
11.65200,-0.05417
11.65600,-0.06333
11.66000,-0.06616
11.66400,-0.07683
11.66800,-0.07555
11.67200,-0.08027
11.67600,-0.08154
11.68000,-0.01116
11.68400,-0.02683
11.68800,-0.05963
11.69200,-0.04522
11.69600,-0.07855
11.70000,-0.11358
11.70400,-0.09472
11.70800,-0.05629
11.71200,-0.03083
11.71600,-0.05953
11.72000,-0.07803
11.72400,-0.06307
11.72800,-0.07762
11.73200,-0.08518
11.73600,-0.06235
11.74000,-0.06544
11.74400,-0.07329
11.74800,-0.07455
11.75200,-0.07523
11.75600,-0.05231
11.76000,-0.02958
11.76400,-0.06065
11.76800,-0.01279
11.77200,-0.08770
11.77600,-0.05063
11.78000,-0.07833
11.78400,-0.05874
11.78800,-0.05341
11.79200,-0.04431
11.79600,-0.03299
11.80000,-0.06563
11.80400,-0.07883
11.80800,-0.05808
11.81200,-0.04849
11.81600,-0.06763
11.82000,-0.03640
11.82400,-0.02079
11.82800,-0.08113
11.83200,-0.04613
11.83600,-0.03317
11.84000,-0.09024
11.84400,-0.04856
11.84800,-0.05675
11.85200,-0.07990
11.85600,-0.02629
11.86000,-0.04749
11.86400,-0.06084
11.86800,-0.04265
11.87200,-0.03855
11.87600,-0.03586
11.88000,-0.03934
11.88400,-0.04246
11.88800,-0.07314
11.89200,-0.05819
11.89600,-0.04725
11.90000,-0.10349
11.90400,-0.00776
11.90800,-0.05649
11.91200,-0.06942
11.91600,-0.08409
11.92000,-0.04355
11.92400,-0.04755
11.92800,-0.05933
11.93200,-0.05584
11.93600,-0.06480
11.94000,-0.06187
11.94400,-0.04894
11.94800,-0.05934
11.95200,-0.03332
11.95600,-0.04910
11.96000,-0.04351
11.96400,-0.03794
11.96800,-0.02084
11.97200,-0.03365
11.97600,-0.04068
11.98000,-0.04807
11.98400,-0.06035
11.98800,-0.05107
11.99200,-0.03084
11.99600,-0.03947
12.00000,-0.05117
12.00400,-0.06928
12.00800,-0.07286
12.01200,-0.03631
12.01600,-0.02207
12.02000,-0.03417
12.02400,-0.06738
12.02800,-0.04362
12.03200,-0.03359
12.03600,-0.05373
12.04000,-0.02630
12.04400,-0.03335
12.04800,-0.04112
12.05200,-0.04339
12.05600,0.00343
12.06000,0.00249
12.06400,-0.01289
12.06800,-0.00577
12.07200,0.04127
12.07600,0.04533
12.08000,0.03691
12.08400,0.08178
12.08800,0.05124
12.09200,0.04029
12.09600,0.08368
12.10000,0.05772
12.10400,0.06466
12.10800,0.05304
12.11200,0.02541
12.11600,0.01320
12.12000,0.02327
12.12400,0.04503
12.12800,-0.01097
12.13200,0.02669
12.13600,-0.00287
12.14000,-0.03511
12.14400,-0.01341
12.14800,-0.01162
12.15200,-0.04328
12.15600,-0.06949
12.16000,-0.02265
12.16400,-0.05223
12.16800,-0.02266
12.17200,-0.06879
12.17600,-0.03445
12.18000,-0.04742
12.18400,-0.06036
12.18800,-0.03605
12.19200,-0.02780
12.19600,-0.04174
12.20000,-0.05362
12.20400,-0.02624
12.20800,-0.06414
12.21200,-0.01943
12.21600,-0.02003
12.22000,0.00332
12.22400,-0.01194
12.22800,-0.02219
12.23200,-0.02434
12.23600,-0.03022
12.24000,-0.05965
12.24400,-0.01162
12.24800,-0.04035
12.25200,-0.07136
12.25600,-0.10580
12.26000,-0.06858
12.26400,-0.08560
12.26800,-0.08605
12.27200,0.03130
12.27600,0.19566
12.28000,0.35511
12.28400,0.59255
12.28800,0.79466
12.29200,0.94411
12.29600,1.02239
12.30000,0.98147
12.30400,0.73716
12.30800,0.48473
12.31200,0.24909
12.31600,0.01448
12.32000,-0.11326
12.32400,-0.18992
12.32800,-0.24681
12.33200,-0.23015
12.33600,-0.17317
12.34000,-0.11311
12.34400,-0.08594
12.34800,-0.03792
12.35200,-0.06848
12.35600,-0.01923
12.36000,-0.03296
12.36400,-0.01390
12.36800,-0.00592
12.37200,-0.02772
12.37600,-0.00983
12.38000,-0.02396
12.38400,0.00857
12.38800,-0.00744
12.39200,0.00616
12.39600,0.02780
12.40000,0.01989
12.40400,0.06517
12.40800,0.04214
12.41200,0.08396
12.41600,0.08723
12.42000,0.07715
12.42400,0.10954
12.42800,0.11498
12.43200,0.14227
12.43600,0.16244
12.44000,0.22139
12.44400,0.19602
12.44800,0.25181
12.45200,0.24611
12.45600,0.22654
12.46000,0.21949
12.46400,0.28764
12.46800,0.24343
12.47200,0.30067
12.47600,0.30846
12.48000,0.29487
12.48400,0.27907
12.48800,0.27129
12.49200,0.27159
12.49600,0.24878
12.50000,0.23039
12.50400,0.21810
12.50800,0.23125
12.51200,0.17907
12.51600,0.18059
12.52000,0.13307
12.52400,0.12405
12.52800,0.09435
12.53200,0.10114
12.53600,0.10327
12.54000,0.08225
12.54400,0.05438
12.54800,0.06468
12.55200,0.03636
12.55600,0.04182
12.56000,0.03266
12.56400,0.03172
12.56800,-0.03184
12.57200,-0.01328
12.57600,0.02353
12.58000,0.00378
12.58400,0.04717
12.58800,-0.00242
12.59200,-0.00976
12.59600,0.02896
12.60000,0.01019
12.60400,0.03577
12.60800,0.00867
12.61200,-0.00524
12.61600,0.01271
12.62000,-0.01648
12.62400,-0.00975
12.62800,-0.01168
12.63200,-0.00505
12.63600,0.01453
12.64000,-0.00962
12.64400,0.00617
12.64800,-0.00946
12.65200,0.01752
12.65600,-0.05262
12.66000,-0.00308
12.66400,0.00446
12.66800,-0.01940
12.67200,0.02131
12.67600,0.00616
12.68000,0.02701
12.68400,0.02109
12.68800,0.01515
12.69200,0.00011
12.69600,-0.01774
12.70000,-0.00074
12.70400,-0.00512
12.70800,0.00886
12.71200,-0.00471
12.71600,0.06360
12.72000,-0.02610
12.72400,0.02774
12.72800,-0.00379
12.73200,0.00085
12.73600,0.02368
12.74000,0.00609
12.74400,-0.01714
12.74800,0.01453
12.75200,0.00301
12.75600,-0.03274
12.76000,0.01110
12.76400,-0.01286
12.76800,-0.00661
12.77200,0.01733
12.77600,0.01405
12.78000,0.00289
12.78400,0.05066
12.78800,0.01709
12.79200,-0.00263
12.79600,0.01404
12.80000,0.00737
12.80400,-0.03261
12.80800,-0.02025
12.81200,-0.01643
12.81600,0.05055
12.82000,0.00735
12.82400,0.00580
12.82800,0.00046
12.83200,0.03055
12.83600,0.01238
12.84000,0.04500
12.84400,0.02752
12.84800,0.04429
12.85200,0.01050
12.85600,0.02024
12.86000,0.00487
12.86400,0.01019
12.86800,-0.01971
12.87200,0.00269
12.87600,-0.00422
12.88000,0.00179
12.88400,0.03805
12.88800,0.01986
12.89200,0.03867
12.89600,0.03181
12.90000,0.03322
12.90400,0.03507
12.90800,0.00425
12.91200,0.03161
12.91600,0.01015
12.92000,0.00635
12.92400,0.03984
12.92800,0.05875
12.93200,-0.00160
12.93600,0.05100
12.94000,0.03379
12.94400,0.00174
12.94800,0.02370
12.95200,0.02605
12.95600,0.02672
12.96000,0.01342
12.96400,-0.00338
12.96800,0.02351
12.97200,0.04156
12.97600,0.04281
12.98000,0.04399
12.98400,0.05703
12.98800,0.02231
12.99200,0.04736
12.99600,0.06259
13.00000,0.08410
13.00400,0.07739
13.00800,0.09424
13.01200,0.09656
13.01600,0.14349
13.02000,0.06882
13.02400,0.11650
13.02800,0.16859
13.03200,0.12690
13.03600,0.08598
13.04000,0.12033
13.04400,0.08444
13.04800,0.09153
13.05200,0.10027
13.05600,0.11961
13.06000,0.08603
13.06400,0.08085
13.06800,0.07916
13.07200,0.05593
13.07600,0.02919
13.08000,0.03858
13.08400,0.04280
13.08800,0.02781
13.09200,0.01794
13.09600,0.02223
13.10000,-0.00090
13.10400,0.00758
13.10800,0.02515
13.11200,0.01974
13.11600,0.02734
13.12000,0.05368
13.12400,0.03251
13.12800,0.02624
13.13200,0.00440
13.13600,0.00640
13.14000,0.03456
13.14400,0.01068
13.14800,0.03593
13.15200,0.00715
13.15600,0.03055
13.16000,0.02665
13.16400,0.04716
13.16800,0.01995
13.17200,0.01893
13.17600,0.02761
13.18000,0.01763
13.18400,0.03845
13.18800,-0.01434
13.19200,-0.03755
13.19600,-0.04740
13.20000,-0.03075
13.20400,-0.00256
13.20800,0.08741
13.21200,0.18788
13.21600,0.45882
13.22000,0.67565
13.22400,0.85747
13.22800,0.98827
13.23200,1.05960
13.23600,0.98459
13.24000,0.74676
13.24400,0.54210
13.24800,0.25981
13.25200,0.08366
13.25600,-0.04651
13.26000,-0.13195
13.26400,-0.20200
13.26800,-0.12881
13.27200,-0.10052
13.27600,-0.08258
13.28000,-0.02816
13.28400,0.02055
13.28800,0.00510
13.29200,0.02398
13.29600,0.02131
13.30000,0.05923
13.30400,-0.00095
13.30800,0.07096
13.31200,0.02837
13.31600,0.06870
13.32000,0.02421
13.32400,0.04298
13.32800,0.05604
13.33200,0.09114
13.33600,0.05287
13.34000,0.10583
13.34400,0.09349
13.34800,0.14243
13.35200,0.12666
13.35600,0.15733
13.36000,0.16106
13.36400,0.21616
13.36800,0.19264
13.37200,0.21735
13.37600,0.27427
13.38000,0.25546
13.38400,0.28426
13.38800,0.27276
13.39200,0.30508
13.39600,0.26988
13.40000,0.32555
13.40400,0.31845
13.40800,0.30654
13.41200,0.30982
13.41600,0.35766
13.42000,0.33957
13.42400,0.29504
13.42800,0.34937
13.43200,0.28900
13.43600,0.28124
13.44000,0.27742
13.44400,0.23394
13.44800,0.20705
13.45200,0.20580
13.45600,0.22486
13.46000,0.20275
13.46400,0.13698
13.46800,0.17438
13.47200,0.13677
13.47600,0.13187
13.48000,0.11065
13.48400,0.10636
13.48800,0.06923
13.49200,0.06234
13.49600,0.05888
13.50000,0.05902
13.50400,0.07276
13.50800,0.03307
13.51200,0.08360
13.51600,0.03787
13.52000,0.03644
13.52400,0.05951
13.52800,0.05294
13.53200,0.03702
13.53600,0.02217
13.54000,0.02294
13.54400,0.01103
13.54800,0.06351
13.55200,0.06218
13.55600,0.07718
13.56000,0.05077
13.56400,0.04756
13.56800,0.05575
13.57200,0.05952
13.57600,0.03629
13.58000,0.04811
13.58400,0.08286
13.58800,0.00888
13.59200,0.01450
13.59600,0.02310
13.60000,0.05622
13.60400,0.06466
13.60800,0.03535
13.61200,0.05489
13.61600,0.04110
13.62000,0.04789
13.62400,0.03179
13.62800,0.04175
13.63200,0.04226
13.63600,0.06420
13.64000,0.08547
13.64400,0.00764
13.64800,0.05291
13.65200,0.04264
13.65600,0.06145
13.66000,0.06332
13.66400,0.05798
13.66800,0.05860
13.67200,0.02481
13.67600,0.01033
13.68000,0.07539
13.68400,0.06659
13.68800,0.02504
13.69200,0.06830
13.69600,0.05636
13.70000,-0.00367
13.70400,0.06097
13.70800,0.02471
13.71200,0.06624
13.71600,0.03073
13.72000,0.02960
13.72400,0.01422
13.72800,0.03987
13.73200,0.06371
13.73600,0.03124
13.74000,0.00840
13.74400,0.08561
13.74800,0.07991
13.75200,0.05772
13.75600,0.03413
13.76000,0.02120
13.76400,0.01303
13.76800,0.05542
13.77200,0.06976
13.77600,0.02436
13.78000,0.04483
13.78400,0.03955
13.78800,0.04001
13.79200,0.05467
13.79600,0.08538
13.80000,0.03285
13.80400,0.06155
13.80800,0.06621
13.81200,0.03980
13.81600,0.04247
13.82000,0.01953
13.82400,0.06623
13.82800,0.03526
13.83200,0.03294
13.83600,0.04689
13.84000,0.02911
13.84400,0.02560
13.84800,0.04001
13.85200,0.07446
13.85600,0.04189
13.86000,0.05606
13.86400,0.01767
13.86800,0.00845
13.87200,0.08109
13.87600,0.03841
13.88000,0.01647
13.88400,0.04414
13.88800,0.05794
13.89200,0.01297
13.89600,0.02931
13.90000,0.05137
13.90400,0.02863
13.90800,0.06183
13.91200,0.06505
13.91600,0.05508
13.92000,0.03830
13.92400,0.04573
13.92800,0.03447
13.93200,0.04419
13.93600,0.05289
13.94000,0.04100
13.94400,0.06562
13.94800,0.09695
13.95200,0.03636
13.95600,0.05359
13.96000,0.06290
13.96400,0.05951
13.96800,0.04255
13.97200,0.03797
13.97600,0.06674
13.98000,0.05961
13.98400,0.05760
13.98800,0.03273
13.99200,0.06108
13.99600,0.06516
14.00000,0.04758
14.00400,0.06551
14.00800,0.09753
14.01200,0.02273
14.01600,0.07507
14.02000,0.04618
14.02400,0.04904
14.02800,0.07854
14.03200,0.10229
14.03600,0.10210
14.04000,0.08828
14.04400,0.09258
14.04800,0.11852
14.05200,0.13721
14.05600,0.12682
14.06000,0.11755
14.06400,0.18185
14.06800,0.13046
14.07200,0.13997
14.07600,0.12653
14.08000,0.11821
14.08400,0.12147
14.08800,0.10543
14.09200,0.11352
14.09600,0.06933
14.10000,0.05491
14.10400,0.11375
14.10800,0.06805
14.11200,0.07898
14.11600,0.08264
14.12000,0.06720
14.12400,0.05469
14.12800,0.02207
14.13200,0.01991
14.13600,0.06897
14.14000,0.06258
14.14400,0.06013
14.14800,0.01677
14.15200,0.00748
14.15600,0.02825
14.16000,0.02580
14.16400,0.05176
14.16800,0.02889
14.17200,0.07936
14.17600,0.03667
14.18000,0.03786
14.18400,0.06551
14.18800,0.05513
14.19200,0.03128
14.19600,0.06442
14.20000,0.08514
14.20400,0.02254
14.20800,0.03815
14.21200,0.01564
14.21600,-0.01192
14.22000,0.02244
14.22400,0.00584
14.22800,-0.00295
14.23200,-0.01230
14.23600,-0.02703
14.24000,0.09253
14.24400,0.22040
14.24800,0.40701
14.25200,0.63734
14.25600,0.89139
14.26000,1.02410
14.26400,1.11298
14.26800,1.00380
14.27200,0.77058
14.27600,0.57700
14.28000,0.33020
14.28400,0.09300
14.28800,-0.07925
14.29200,-0.10019
14.29600,-0.18138
14.30000,-0.13999
14.30400,-0.13810
14.30800,-0.08323
14.31200,-0.05421
14.31600,0.02907
14.32000,0.05083
14.32400,0.03270
14.32800,0.02188
14.33200,0.05186
14.33600,0.06381
14.34000,0.02976
14.34400,0.04014
14.34800,0.06446
14.35200,0.08466
14.35600,0.07781
14.36000,0.09154
14.36400,0.06599
14.36800,0.05057
14.37200,0.11520
14.37600,0.10262
14.38000,0.13078
14.38400,0.13985
14.38800,0.17179
14.39200,0.16365
14.39600,0.22405
14.40000,0.21430
14.40400,0.24217
14.40800,0.26228
14.41200,0.28801
14.41600,0.29263
14.42000,0.26637
14.42400,0.30244
14.42800,0.36325
14.43200,0.34603
14.43600,0.35502
14.44000,0.35765
14.44400,0.33751
14.44800,0.33530
14.45200,0.33148
14.45600,0.35952
14.46000,0.33415
14.46400,0.34965
14.46800,0.31045
14.47200,0.32193
14.47600,0.27694
14.48000,0.22710
14.48400,0.26620
14.48800,0.22061
14.49200,0.21955
14.49600,0.18328
14.50000,0.15640
14.50400,0.15094
14.50800,0.11167
14.51200,0.09756
14.51600,0.09222
14.52000,0.08933
14.52400,0.06430
14.52800,0.08134
14.53200,0.08295
14.53600,0.11139
14.54000,0.10327
14.54400,0.06254
14.54800,0.07791
14.55200,0.05389
14.55600,0.06398
14.56000,0.05418
14.56400,0.04310
14.56800,0.05433
14.57200,0.02314
14.57600,0.06034
14.58000,0.04565
14.58400,0.02980
14.58800,0.04381
14.59200,0.06164
14.59600,0.03730
14.60000,0.05994
14.60400,0.06176
14.60800,0.08118
14.61200,0.02913
14.61600,0.04831
14.62000,0.06056
14.62400,0.08002
14.62800,0.05566
14.63200,0.06534
14.63600,0.02161
14.64000,0.03901
14.64400,0.08322
14.64800,0.04491
14.65200,0.09311
14.65600,0.03617
14.66000,0.04504
14.66400,0.01911
14.66800,0.06306
14.67200,0.05574
14.67600,0.09031
14.68000,0.05379
14.68400,0.04559
14.68800,0.02276
14.69200,0.04891
14.69600,0.06921
14.70000,0.06514
14.70400,0.07476
14.70800,0.06760
14.71200,0.04962
14.71600,0.06247
14.72000,0.05394
14.72400,0.02423
14.72800,0.08433
14.73200,0.05793
14.73600,0.02977
14.74000,0.05814
14.74400,0.05621
14.74800,0.07021
14.75200,0.07906
14.75600,-0.00958
14.76000,0.06148
14.76400,0.08076
14.76800,0.03176
14.77200,0.01376
14.77600,0.05602
14.78000,0.05713
14.78400,0.05741
14.78800,0.02852
14.79200,0.04123
14.79600,0.05432
14.80000,0.06520
14.80400,0.09383
14.80800,0.05626
14.81200,0.03850
14.81600,0.00370
14.82000,0.07168
14.82400,0.04779
14.82800,0.04822
14.83200,0.03081
14.83600,0.06492
14.84000,0.01484
14.84400,0.05250
14.84800,0.05274
14.85200,0.05627
14.85600,0.07617
14.86000,0.04834
14.86400,0.05215
14.86800,0.06725
14.87200,0.01951
14.87600,0.04445
14.88000,0.05157
14.88400,0.06916
14.88800,0.03432
14.89200,0.06613
14.89600,0.05779
14.90000,0.02064
14.90400,0.02078
14.90800,0.02168
14.91200,0.05287
14.91600,0.05419
14.92000,0.06445
14.92400,0.06640
14.92800,0.03917
14.93200,0.07144
14.93600,0.06659
14.94000,0.05992
14.94400,0.06043
14.94800,0.02593
14.95200,0.05954
14.95600,0.03311
14.96000,0.03176
14.96400,0.05100
14.96800,0.06405
14.97200,0.06453
14.97600,0.06442
14.98000,0.05763
14.98400,0.08884
14.98800,0.07900
14.99200,0.07504
14.99600,0.11453
15.00000,0.15108
15.00400,0.12297
15.00800,0.11751
15.01200,0.17202
15.01600,0.18222
15.02000,0.14356
15.02400,0.14391
15.02800,0.14857
15.03200,0.19714
15.03600,0.13342
15.04000,0.14164
15.04400,0.12111
15.04800,0.06637
15.05200,0.07128
15.05600,0.06003
15.06000,0.08548
15.06400,0.07239
15.06800,0.10044
15.07200,0.05506
15.07600,0.06318
15.08000,0.05597
15.08400,0.05537
15.08800,0.09738
15.09200,0.05599
15.09600,0.07899
15.10000,0.07509
15.10400,0.03686
15.10800,0.06242
15.11200,0.04104
15.11600,0.05072
15.12000,0.05160
15.12400,0.04881
15.12800,0.03898
15.13200,0.07930
15.13600,0.04294
15.14000,0.06217
15.14400,0.08156
15.14800,0.06044
15.15200,0.06812
15.15600,0.07465
15.16000,0.06704
15.16400,0.07617
15.16800,0.00691
15.17200,0.06357
15.17600,0.00954
15.18000,-0.04393
15.18400,-0.03609
15.18800,-0.04998
15.19200,0.01000
15.19600,0.06163
15.20000,0.21150
15.20400,0.43388
15.20800,0.65998
15.21200,0.85857
15.21600,1.02305
15.22000,1.07062
15.22400,0.99385
15.22800,0.80512
15.23200,0.55275
15.23600,0.32089
15.24000,0.05767
15.24400,-0.06829
15.24800,-0.13473
15.25200,-0.16679
15.25600,-0.15241
15.26000,-0.11288
15.26400,-0.05788
15.26800,0.00041
15.27200,0.00079
15.27600,0.01908
15.28000,0.04411
15.28400,0.03974
15.28800,0.01062
15.29200,0.05792
15.29600,0.04796
15.30000,0.04719
15.30400,0.07485
15.30800,0.06758
15.31200,0.06072
15.31600,0.03481
15.32000,0.05138
15.32400,0.09469
15.32800,0.10201
15.33200,0.12438
15.33600,0.13268
15.34000,0.13256
15.34400,0.13195
15.34800,0.15153
15.35200,0.18770
15.35600,0.18522
15.36000,0.24133
15.36400,0.21776
15.36800,0.22611
15.37200,0.27492
15.37600,0.25899
15.38000,0.34108
15.38400,0.30080
15.38800,0.32936
15.39200,0.33268
15.39600,0.32551
15.40000,0.30796
15.40400,0.30448
15.40800,0.35444
15.41200,0.35020
15.41600,0.36307
15.42000,0.27828
15.42400,0.30446
15.42800,0.27709
15.43200,0.27721
15.43600,0.23216
15.44000,0.23862
15.44400,0.22386
15.44800,0.20016
15.45200,0.19969
15.45600,0.15088
15.46000,0.16994
15.46400,0.11095
15.46800,0.14550
15.47200,0.04576
15.47600,0.09081
15.48000,0.06567
15.48400,0.07407
15.48800,0.08814
15.49200,0.07638
15.49600,0.05933
15.50000,0.08768
15.50400,0.02104
15.50800,0.03177
15.51200,0.07624
15.51600,0.05100
15.52000,0.00168
15.52400,0.04898
15.52800,0.01768
15.53200,0.07029
15.53600,0.06311
15.54000,0.02889
15.54400,0.06537
15.54800,0.02256
15.55200,0.05739
15.55600,0.05036
15.56000,0.03606
15.56400,0.00999
15.56800,0.03267
15.57200,-0.00769
15.57600,0.02668
15.58000,0.00079
15.58400,0.06196
15.58800,0.01818
15.59200,-0.01128
15.59600,0.04890
15.60000,0.04444
15.60400,0.02678
15.60800,0.07911
15.61200,0.05208
15.61600,0.03779
15.62000,0.02341
15.62400,-0.02296
15.62800,0.04559
15.63200,0.05505
15.63600,0.02385
15.64000,0.00727
15.64400,0.03453
15.64800,0.00177
15.65200,0.03520
15.65600,0.05031
15.66000,0.06492
15.66400,0.03987
15.66800,0.03833
15.67200,0.04923
15.67600,0.06207
15.68000,0.02751
15.68400,0.00917
15.68800,0.01773
15.69200,0.00822
15.69600,0.01544
15.70000,0.03063
15.70400,0.03973
15.70800,0.03583
15.71200,0.03392
15.71600,0.02521
15.72000,0.04064
15.72400,0.04971
15.72800,0.04701
15.73200,0.06159
15.73600,0.02566
15.74000,0.02625
15.74400,0.06498
15.74800,0.03493
15.75200,0.03898
15.75600,0.02382
15.76000,0.04973
15.76400,0.02212
15.76800,0.00983
15.77200,0.02858
15.77600,0.02075
15.78000,0.04609
15.78400,0.02166
15.78800,0.03149
15.79200,0.02449
15.79600,0.03544
15.80000,0.01583
15.80400,0.05033
15.80800,-0.00043
15.81200,0.02014
15.81600,0.01347
15.82000,0.04040
15.82400,0.02804
15.82800,0.03674
15.83200,0.02024
15.83600,0.01228
15.84000,0.00404
15.84400,0.01955
15.84800,0.01532
15.85200,0.03144
15.85600,0.03276
15.86000,0.04504
15.86400,0.02325
15.86800,0.01035
15.87200,0.00413
15.87600,0.02675
15.88000,0.03313
15.88400,0.06555
15.88800,0.03131
15.89200,0.06444
15.89600,0.06906
15.90000,0.01376
15.90400,0.06306
15.90800,0.06678
15.91200,0.07729
15.91600,0.05762
15.92000,0.08531
15.92400,0.06570
15.92800,0.08336
15.93200,0.09446
15.93600,0.13837
15.94000,0.10582
15.94400,0.13489
15.94800,0.12060
15.95200,0.10614
15.95600,0.12367
15.96000,0.12807
15.96400,0.09451
15.96800,0.11356
15.97200,0.07753
15.97600,0.06446
15.98000,0.07650
15.98400,0.05783
15.98800,0.03402
15.99200,0.01319
15.99600,0.03946
16.00000,0.03820
16.00400,0.01957
16.00800,0.02891
16.01200,-0.00815
16.01600,0.02816
16.02000,0.02709
16.02400,0.02319
16.02800,0.00453
16.03200,0.01774
16.03600,0.01826
16.04000,0.03666
16.04400,0.02045
16.04800,0.01971
16.05200,-0.00012
16.05600,0.03133
16.06000,0.03728
16.06400,0.00370
16.06800,0.02609
16.07200,0.01922
16.07600,0.01184
16.08000,-0.01327
16.08400,0.04708
16.08800,-0.02626
16.09200,0.01528
16.09600,-0.00195
16.10000,0.02174
16.10400,-0.02067
16.10800,-0.02717
16.11200,-0.03401
16.11600,-0.05155
16.12000,-0.07009
16.12400,-0.01370
16.12800,0.06122
16.13200,0.21318
16.13600,0.37942
16.14000,0.61738
16.14400,0.82791
16.14800,0.97203
16.15200,1.03852
16.15600,0.96116
16.16000,0.79404
16.16400,0.51090
16.16800,0.27113
16.17200,0.07238
16.17600,-0.10108
16.18000,-0.17669
16.18400,-0.19687
16.18800,-0.19612
16.19200,-0.16503
16.19600,-0.08113
16.20000,-0.06256
16.20400,-0.03875
16.20800,-0.04232
16.21200,-0.00281
16.21600,0.02562
16.22000,-0.01624
16.22400,-0.00796
16.22800,0.03466
16.23200,0.04400
16.23600,0.04990
16.24000,0.01215
16.24400,0.04023
16.24800,0.01943
16.25200,0.05201
16.25600,0.04283
16.26000,0.06376
16.26400,0.09764
16.26800,0.09007
16.27200,0.09224
16.27600,0.11307
16.28000,0.13324
16.28400,0.13461
16.28800,0.16645
16.29200,0.19213
16.29600,0.22907
16.30000,0.17448
16.30400,0.20852
16.30800,0.22306
16.31200,0.27898
16.31600,0.32200
16.32000,0.28689
16.32400,0.29243
16.32800,0.31682
16.33200,0.24683
16.33600,0.29004
16.34000,0.22691
16.34400,0.28440
16.34800,0.26106
16.35200,0.24906
16.35600,0.25100
16.36000,0.21658
16.36400,0.23302
16.36800,0.19283
16.37200,0.18204
16.37600,0.20647
16.38000,0.12905
16.38400,0.13891
16.38800,0.08752
16.39200,0.11324
16.39600,0.09334
16.40000,0.06399
16.40400,0.06926
16.40800,0.07119
16.41200,0.05757
16.41600,0.02243
16.42000,0.01463
16.42400,0.03203
16.42800,-0.02390
16.43200,-0.01061
16.43600,0.00771
16.44000,0.00671
16.44400,0.03015
16.44800,0.02637
16.45200,-0.00353
16.45600,-0.00238
16.46000,-0.03822
16.46400,-0.01654
16.46800,-0.00835
16.47200,-0.01857
16.47600,-0.01339
16.48000,-0.00296
16.48400,-0.03425
16.48800,-0.02701
16.49200,-0.05131
16.49600,0.00625
16.50000,-0.03764
16.50400,-0.05077
16.50800,-0.00210
16.51200,-0.02188
16.51600,0.00118
16.52000,-0.02553
16.52400,0.02354
16.52800,-0.00468
16.53200,-0.01613
16.53600,-0.01712
16.54000,-0.02376
16.54400,-0.00398
16.54800,0.01929
16.55200,-0.02891
16.55600,-0.04238
16.56000,-0.00932
16.56400,-0.00033
16.56800,-0.05123
16.57200,-0.03569
16.57600,-0.04200
16.58000,-0.01147
16.58400,-0.01288
16.58800,-0.03766
16.59200,-0.04572
16.59600,-0.01024
16.60000,-0.06465
16.60400,-0.01159
16.60800,-0.02766
16.61200,0.01303
16.61600,-0.00554
16.62000,-0.03690
16.62400,-0.03115
16.62800,-0.03150
16.63200,-0.04067
16.63600,-0.02498
16.64000,-0.00785
16.64400,-0.05691
16.64800,-0.03194
16.65200,0.00172
16.65600,-0.01337
16.66000,-0.04435
16.66400,-0.04448
16.66800,-0.04572
16.67200,-0.06079
16.67600,-0.00675
16.68000,-0.02833
16.68400,-0.04373
16.68800,-0.05852
16.69200,-0.03811
16.69600,-0.04090
16.70000,0.00282
16.70400,-0.04043
16.70800,-0.02937
16.71200,-0.01082
16.71600,-0.01905
16.72000,-0.03604
16.72400,-0.07572
16.72800,-0.00543
16.73200,-0.02153
16.73600,-0.04212
16.74000,-0.03559
16.74400,-0.05292
16.74800,-0.05206
16.75200,-0.06384
16.75600,-0.02503
16.76000,-0.02494
16.76400,-0.03192
16.76800,-0.02019
16.77200,-0.02511
16.77600,-0.03328
16.78000,-0.05293
16.78400,-0.02360
16.78800,-0.01127
16.79200,-0.02116
16.79600,-0.00746
16.80000,-0.03902
16.80400,-0.04588
16.80800,0.00203
16.81200,-0.02887
16.81600,-0.00634
16.82000,-0.00746
16.82400,0.00508
16.82800,0.00840
16.83200,0.01254
16.83600,-0.00260
16.84000,0.07844
16.84400,0.05240
16.84800,0.01625
16.85200,0.03970
16.85600,0.03642
16.86000,0.04243
16.86400,0.00302
16.86800,0.05817
16.87200,0.07117
16.87600,0.02505
16.88000,0.03469
16.88400,0.02197
16.88800,-0.02382
16.89200,0.01564
16.89600,-0.04922
16.90000,-0.03424
16.90400,-0.03566
16.90800,-0.00856
16.91200,-0.03447
16.91600,-0.04200
16.92000,-0.05741
16.92400,-0.04142
16.92800,-0.04348
16.93200,-0.03083
16.93600,-0.01843
16.94000,-0.03179
16.94400,-0.04627
16.94800,-0.04994
16.95200,-0.01586
16.95600,-0.04356
16.96000,-0.04806
16.96400,-0.01279
16.96800,-0.01749
16.97200,-0.03730
16.97600,-0.05081
16.98000,-0.06135
16.98400,-0.02833
16.98800,-0.05856
16.99200,-0.03176
16.99600,-0.06768
17.00000,-0.05391
17.00400,-0.05476
17.00800,-0.07083
17.01200,-0.08479
17.01600,-0.10012
17.02000,-0.14395
17.02400,-0.14269
17.02800,-0.09141
17.03200,0.02753
17.03600,0.12987
17.04000,0.31044
17.04400,0.54439
17.04800,0.77544
17.05200,0.95101
17.05600,0.96154
17.06000,0.90320
17.06400,0.70866
17.06800,0.44981
17.07200,0.18437
17.07600,-0.01390
17.08000,-0.17335
17.08400,-0.22779
17.08800,-0.29424
17.09200,-0.22049
17.09600,-0.19061
17.10000,-0.15214
17.10400,-0.09670
17.10800,-0.08535
17.11200,-0.11071
17.11600,-0.06381
17.12000,-0.04859
17.12400,-0.06616
17.12800,-0.07169
17.13200,-0.03832
17.13600,-0.03376
17.14000,-0.04848
17.14400,-0.04060
17.14800,-0.04056
17.15200,-0.03551
17.15600,-0.01821
17.16000,0.01244
17.16400,-0.03008
17.16800,0.00588
17.17200,0.05655
17.17600,0.04506
17.18000,0.05690
17.18400,0.08631
17.18800,0.06742
17.19200,0.08103
17.19600,0.09023
17.20000,0.11214
17.20400,0.16303
17.20800,0.19155
17.21200,0.18248
17.21600,0.19135
17.22000,0.22452
17.22400,0.23832
17.22800,0.23847
17.23200,0.20064
17.23600,0.22849
17.24000,0.18810
17.24400,0.23762
17.24800,0.20892
17.25200,0.20269
17.25600,0.23244
17.26000,0.21459
17.26400,0.18232
17.26800,0.16120
17.27200,0.14131
17.27600,0.10826
17.28000,0.10042
17.28400,0.12073
17.28800,0.04913
17.29200,0.03689
17.29600,0.03762
17.30000,0.03773
17.30400,0.02378
17.30800,-0.02275
17.31200,-0.01662
17.31600,-0.02810
17.32000,-0.05459
17.32400,-0.03559
17.32800,-0.05195
17.33200,-0.02927
17.33600,-0.04251
17.34000,-0.06920
17.34400,-0.05493
17.34800,-0.06543
17.35200,-0.07243
17.35600,-0.07079
17.36000,-0.04160
17.36400,-0.07111
17.36800,-0.09702
17.37200,-0.07920
17.37600,-0.04880
17.38000,-0.02292
17.38400,-0.08552
17.38800,-0.07214
17.39200,-0.07178
17.39600,-0.09290
17.40000,-0.05783
17.40400,-0.06674
17.40800,-0.06043
17.41200,-0.02241
17.41600,-0.07122
17.42000,-0.05069
17.42400,-0.04999
17.42800,-0.07865
17.43200,-0.07788
17.43600,-0.03615
17.44000,-0.05260
17.44400,-0.06380
17.44800,-0.08793
17.45200,-0.04955
17.45600,-0.05654
17.46000,-0.02413
17.46400,-0.03826
17.46800,-0.05136
17.47200,-0.06184
17.47600,-0.06591
17.48000,-0.07788
17.48400,-0.06123
17.48800,-0.06254
17.49200,-0.05467
17.49600,-0.04627
17.50000,-0.06138
17.50400,-0.07805
17.50800,-0.05185
17.51200,-0.03740
17.51600,-0.08387
17.52000,-0.05952
17.52400,-0.05706
17.52800,-0.05734
17.53200,-0.05799
17.53600,-0.06961
17.54000,-0.06986
17.54400,-0.03512
17.54800,-0.03427
17.55200,-0.09523
17.55600,-0.11734
17.56000,-0.05952
17.56400,-0.08117
17.56800,-0.07814
17.57200,-0.09910
17.57600,-0.06127
17.58000,-0.06922
17.58400,-0.07867
17.58800,-0.05073
17.59200,-0.02094
17.59600,-0.03956
17.60000,-0.04543
17.60400,-0.07626
17.60800,-0.05547
17.61200,-0.06901
17.61600,-0.04579
17.62000,-0.05698
17.62400,-0.06898
17.62800,-0.05756
17.63200,-0.08225
17.63600,-0.05290
17.64000,-0.03907
17.64400,-0.07532
17.64800,-0.05749
17.65200,-0.10067
17.65600,-0.05008
17.66000,-0.05123
17.66400,-0.08811
17.66800,-0.03438
17.67200,-0.06603
17.67600,-0.10185
17.68000,-0.09482
17.68400,-0.05121
17.68800,-0.07347
17.69200,-0.04671
17.69600,-0.09823
17.70000,-0.06998
17.70400,-0.04900
17.70800,-0.08104
17.71200,-0.05448
17.71600,-0.07440
17.72000,-0.06032
17.72400,-0.06011
17.72800,-0.02207
17.73200,-0.08818
17.73600,-0.04710
17.74000,-0.03419
17.74400,-0.07813
17.74800,-0.05033
17.75200,-0.00158
17.75600,-0.01945
17.76000,-0.08979
17.76400,-0.02811
17.76800,-0.04734
17.77200,0.00149
17.77600,-0.00892
17.78000,0.00318
17.78400,0.00553
17.78800,0.03345
17.79200,0.02245
17.79600,0.01526
17.80000,0.02721
17.80400,0.03585
17.80800,0.00550
17.81200,0.03613
17.81600,-0.02652
17.82000,0.00419
17.82400,-0.02089
17.82800,0.00797
17.83200,-0.04365
17.83600,-0.05162
17.84000,-0.07129
17.84400,-0.01198
17.84800,-0.04283
17.85200,-0.07919
17.85600,-0.06709
17.86000,-0.08093
17.86400,-0.03395
17.86800,-0.05624
17.87200,-0.10444
17.87600,-0.06111
17.88000,-0.04756
17.88400,-0.06537
17.88800,-0.05621
17.89200,-0.06752
17.89600,-0.06126
17.90000,-0.06111
17.90400,-0.07891
17.90800,-0.05832
17.91200,-0.06177
17.91600,-0.06565
17.92000,-0.07811
17.92400,-0.08452
17.92800,-0.06017
17.93200,-0.04945
17.93600,-0.11395
17.94000,-0.08066
17.94400,-0.05031
17.94800,-0.06953
17.95200,-0.11655
17.95600,-0.09432
17.96000,-0.15386
17.96400,-0.14870
17.96800,-0.06289
17.97200,-0.02799
17.97600,0.11669
17.98000,0.28541
17.98400,0.52688
17.98800,0.74148
17.99200,0.91508
17.99600,0.92714
18.00000,0.90342
18.00400,0.68893
18.00800,0.43615
18.01200,0.18199
18.01600,-0.00466
18.02000,-0.13727
18.02400,-0.25378
18.02800,-0.23567
18.03200,-0.21813
18.03600,-0.18592
18.04000,-0.16390
18.04400,-0.16088
18.04800,-0.08965
18.05200,-0.09058
18.05600,-0.06606
18.06000,-0.09870
18.06400,-0.06266
18.06800,-0.04910
18.07200,-0.06872
18.07600,-0.04142
18.08000,-0.01070
18.08400,-0.03414
18.08800,-0.04643
18.09200,0.01983
18.09600,-0.06079
18.10000,-0.02790
18.10400,0.00811
18.10800,0.00016
18.11200,-0.02014
18.11600,0.04369
18.12000,0.07015
18.12400,0.05493
18.12800,0.11625
18.13200,0.11539
18.13600,0.14715
18.14000,0.11251
18.14400,0.16008
18.14800,0.20840
18.15200,0.23244
18.15600,0.23317
18.16000,0.21984
18.16400,0.23344
18.16800,0.22507
18.17200,0.26329
18.17600,0.23001
18.18000,0.24463
18.18400,0.19772
18.18800,0.20152
18.19200,0.25581
18.19600,0.21027
18.20000,0.19931
18.20400,0.13672
18.20800,0.16206
18.21200,0.18550
18.21600,0.09800
18.22000,0.06284
18.22400,0.08842
18.22800,0.06422
18.23200,0.05438
18.23600,0.01893
18.24000,0.00317
18.24400,-0.00698
18.24800,0.01844
18.25200,-0.00483
18.25600,0.00357
18.26000,-0.04088
18.26400,-0.01452
18.26800,-0.03988
18.27200,-0.03379
18.27600,-0.02078
18.28000,-0.04115
18.28400,-0.05085
18.28800,-0.07821
18.29200,-0.04575
18.29600,-0.03264
18.30000,-0.06101
18.30400,-0.05043
18.30800,-0.08401
18.31200,-0.07573
18.31600,-0.04183
18.32000,-0.02438
18.32400,-0.05575
18.32800,-0.08230
18.33200,-0.05691
18.33600,-0.07994
18.34000,-0.05457
18.34400,-0.01122
18.34800,-0.04299
18.35200,-0.05165
18.35600,-0.02818
18.36000,-0.05573
18.36400,-0.04160
18.36800,-0.04400
18.37200,-0.03899
18.37600,-0.07634
18.38000,-0.03342
18.38400,-0.02986
18.38800,-0.09169
18.39200,-0.09995
18.39600,-0.06413
18.40000,-0.01712
18.40400,-0.04577
18.40800,-0.03267
18.41200,-0.03491
18.41600,-0.02815
18.42000,-0.05791
18.42400,-0.05669
18.42800,-0.03762
18.43200,-0.03285
18.43600,-0.03332
18.44000,-0.03773
18.44400,-0.05372
18.44800,-0.02230
18.45200,-0.03454
18.45600,-0.02270
18.46000,-0.09336
18.46400,-0.02336
18.46800,-0.09096
18.47200,-0.03864
18.47600,-0.05567
18.48000,-0.04002
18.48400,-0.05156
18.48800,-0.04809
18.49200,-0.03799
18.49600,-0.03476
18.50000,-0.05710
18.50400,-0.09099
18.50800,-0.05633
18.51200,-0.03010
18.51600,-0.05717
18.52000,-0.03192
18.52400,-0.04741
18.52800,-0.05853
18.53200,-0.01672
18.53600,-0.00685
18.54000,-0.04137
18.54400,-0.04012
18.54800,-0.02002
18.55200,-0.06490
18.55600,-0.05571
18.56000,-0.01596
18.56400,-0.02031
18.56800,-0.04762
18.57200,-0.05302
18.57600,-0.03055
18.58000,-0.06505
18.58400,-0.04691
18.58800,-0.04143
18.59200,-0.08527
18.59600,-0.02476
18.60000,-0.02112
18.60400,-0.01493
18.60800,-0.06423
18.61200,-0.06099
18.61600,-0.05151
18.62000,-0.06099
18.62400,0.00567
18.62800,-0.05408
18.63200,-0.04074
18.63600,-0.03023
18.64000,-0.02505
18.64400,-0.00509
18.64800,-0.05507
18.65200,-0.01573
18.65600,-0.02975
18.66000,-0.05532
18.66400,-0.02832
18.66800,-0.05798
18.67200,0.00344
18.67600,-0.04111
18.68000,-0.00396
18.68400,0.00545
18.68800,-0.02806
18.69200,-0.02797
18.69600,-0.00081
18.70000,-0.01635
18.70400,0.03114
18.70800,0.02630
18.71200,0.01755
18.71600,0.02884
18.72000,0.06592
18.72400,0.03059
18.72800,0.09901
18.73200,0.05380
18.73600,0.06698
18.74000,0.05144
18.74400,0.09856
18.74800,0.07698
18.75200,0.07905
18.75600,0.05751
18.76000,0.03698
18.76400,0.05943
18.76800,0.02983
18.77200,0.01688
18.77600,0.01223
18.78000,0.00905
18.78400,-0.00526
18.78800,-0.01825
18.79200,-0.04983
18.79600,0.02057
18.80000,-0.04792
18.80400,-0.06601
18.80800,-0.03802
18.81200,0.01430
18.81600,-0.00009
18.82000,-0.03641
18.82400,-0.01910
18.82800,-0.02474
18.83200,-0.06366
18.83600,-0.03059
18.84000,-0.01792
18.84400,-0.00018
18.84800,-0.04732
18.85200,-0.06813
18.85600,-0.05435
18.86000,-0.01617
18.86400,-0.02103
18.86800,-0.01970
18.87200,-0.02017
18.87600,-0.03180
18.88000,-0.05492
18.88400,-0.02489
18.88800,-0.03683
18.89200,-0.04829
18.89600,-0.05275
18.90000,-0.11634
18.90400,-0.13690
18.90800,-0.09294
18.91200,0.06653
18.91600,0.14608
18.92000,0.36896
18.92400,0.58983
18.92800,0.82257
18.93200,1.02568
18.93600,0.99633
18.94000,0.92329
18.94400,0.72792
18.94800,0.49692
18.95200,0.24888
18.95600,0.00573
18.96000,-0.09645
18.96400,-0.17855
18.96800,-0.21369
18.97200,-0.20713
18.97600,-0.17217
18.98000,-0.15792
18.98400,-0.07407
18.98800,-0.07746
18.99200,-0.04782
18.99600,-0.00500
19.00000,-0.03546
19.00400,-0.02256
19.00800,0.00861
19.01200,0.03179
19.01600,-0.01574
19.02000,0.02407
19.02400,-0.00640
19.02800,0.02001
19.03200,0.02853
19.03600,0.00380
19.04000,0.05600
19.04400,0.08170
19.04800,0.05830
19.05200,0.07553
19.05600,0.06087
19.06000,0.13545
19.06400,0.11742
19.06800,0.10798
19.07200,0.16678
19.07600,0.14059
19.08000,0.17441
19.08400,0.16345
19.08800,0.25074
19.09200,0.28339
19.09600,0.24085
19.10000,0.25284
19.10400,0.26441
19.10800,0.27210
19.11200,0.29912
19.11600,0.31889
19.12000,0.26825
19.12400,0.29295
19.12800,0.24101
19.13200,0.29786
19.13600,0.25361
19.14000,0.22739
19.14400,0.25642
19.14800,0.20690
19.15200,0.21885
19.15600,0.19498
19.16000,0.18868
19.16400,0.12192
19.16800,0.12208
19.17200,0.11222
19.17600,0.08595
19.18000,0.10648
19.18400,0.04923
19.18800,0.07239
19.19200,0.06975
19.19600,-0.00514
19.20000,0.00719
19.20400,0.00228
19.20800,0.00423
19.21200,0.01868
19.21600,0.00391
19.22000,0.00617
19.22400,-0.00680
19.22800,-0.00096
19.23200,0.00906
19.23600,0.01331
19.24000,-0.01793
19.24400,-0.00507
19.24800,-0.01835
19.25200,-0.00688
19.25600,-0.03212
19.26000,0.01565
19.26400,0.01002
19.26800,-0.00579
19.27200,-0.01692
19.27600,-0.01225
19.28000,-0.01629
19.28400,-0.03371
19.28800,0.02998
19.29200,0.06327
19.29600,-0.02695
19.30000,-0.02554
19.30400,0.00953
19.30800,0.01024
19.31200,-0.03318
19.31600,-0.03996
19.32000,0.00946
19.32400,-0.04105
19.32800,0.02741
19.33200,-0.01079
19.33600,0.00099
19.34000,-0.00062
19.34400,-0.01159
19.34800,-0.00308
19.35200,-0.00607
19.35600,0.02498
19.36000,-0.00158
19.36400,-0.00023
19.36800,-0.01001
19.37200,-0.01195
19.37600,-0.01384
19.38000,0.00126
19.38400,0.03795
19.38800,0.02368
19.39200,0.00626
19.39600,0.03507
19.40000,0.02213
19.40400,0.00615
19.40800,-0.00113
19.41200,-0.01963
19.41600,0.00745
19.42000,-0.00368
19.42400,-0.02891
19.42800,-0.02275
19.43200,0.04183
19.43600,0.00754
19.44000,0.01337
19.44400,0.00757
19.44800,-0.00557
19.45200,0.01310
19.45600,0.02570
19.46000,-0.00199
19.46400,0.01458
19.46800,0.02499
19.47200,-0.00502
19.47600,0.00818
19.48000,-0.00985
19.48400,0.01716
19.48800,-0.00213
19.49200,0.02832
19.49600,-0.00973
19.50000,0.03948
19.50400,-0.00036
19.50800,-0.01081
19.51200,-0.01193
19.51600,0.01955
19.52000,-0.01068
19.52400,0.04268
19.52800,0.03239
19.53200,0.01725
19.53600,-0.02141
19.54000,0.00670
19.54400,-0.00719
19.54800,-0.02875
19.55200,0.01613
19.55600,0.05182
19.56000,-0.00277
19.56400,0.02431
19.56800,0.03400
19.57200,-0.01066
19.57600,0.00205
19.58000,0.01460
19.58400,0.01921
19.58800,-0.01240
19.59200,0.01588
19.59600,0.01085
19.60000,0.03400
19.60400,-0.01431
19.60800,0.00986
19.61200,0.01555
19.61600,0.02485
19.62000,0.05233
19.62400,0.03311
19.62800,0.10919
19.63200,0.04976
19.63600,0.09052
19.64000,0.10379
19.64400,0.11170
19.64800,0.09610
19.65200,0.08962
19.65600,0.10497
19.66000,0.12479
19.66400,0.11277
19.66800,0.11841
19.67200,0.11251
19.67600,0.07584
19.68000,0.06609
19.68400,0.10422
19.68800,0.05614
19.69200,0.02498
19.69600,0.08538
19.70000,0.02400
19.70400,0.01558
19.70800,0.04832
19.71200,0.00214
19.71600,0.00414
19.72000,0.04013
19.72400,0.00107
19.72800,0.06647
19.73200,0.01750
19.73600,0.06878
19.74000,0.01742
19.74400,0.01584
19.74800,0.00189
19.75200,0.01031
19.75600,0.00483
19.76000,0.01448
19.76400,0.03051
19.76800,-0.01022
19.77200,-0.00303
19.77600,-0.02641
19.78000,0.04567
19.78400,0.01421
19.78800,0.01548
19.79200,0.01449
19.79600,0.03523
19.80000,0.02012
19.80400,0.02745
19.80800,0.00077
19.81200,-0.00898
19.81600,-0.02301
19.82000,-0.07702
19.82400,-0.03203
19.82800,-0.08403
19.83200,-0.03957
19.83600,0.07484
19.84000,0.20295
19.84400,0.41470
19.84800,0.66164
19.85200,0.88258
19.85600,1.02643
19.86000,1.03933
19.86400,1.00478
19.86800,0.75931
19.87200,0.52728
19.87600,0.29533
19.88000,0.05771
19.88400,-0.08841
19.88800,-0.17180
19.89200,-0.15863
19.89600,-0.21767
19.90000,-0.10544
19.90400,-0.06739
19.90800,-0.05222
19.91200,-0.01040
19.91600,-0.02086
19.92000,0.03348
19.92400,0.08029
19.92800,0.00558
19.93200,0.05541
19.93600,0.02950
19.94000,0.02721
19.94400,0.02811
19.94800,0.03868
19.95200,0.02295
19.95600,0.02736
19.96000,0.09542
19.96400,0.07069
19.96800,0.09225
19.97200,0.09890
19.97600,0.11504
19.98000,0.08911
19.98400,0.11598
19.98800,0.16403
19.99200,0.18862
19.99600,0.16369
20.00000,0.19329
20.00400,0.20174
20.00800,0.25406
20.01200,0.26498
20.01600,0.27465
20.02000,0.27529
20.02400,0.30748
20.02800,0.31125
20.03200,0.30313
20.03600,0.32924
20.04000,0.31091
20.04400,0.34188
20.04800,0.33104
20.05200,0.29764
20.05600,0.31340
20.06000,0.29095
20.06400,0.26145
20.06800,0.24165
20.07200,0.20984
20.07600,0.20287
20.08000,0.21441
20.08400,0.21362
20.08800,0.15924
20.09200,0.15797
20.09600,0.14552
20.10000,0.13919
20.10400,0.11858
20.10800,0.12170
20.11200,0.10127
20.11600,0.06081
20.12000,0.07537
20.12400,0.01320
20.12800,0.05019
20.13200,0.04894
20.13600,0.05579
20.14000,0.03464
20.14400,0.05449
20.14800,0.06202
20.15200,0.01706
20.15600,0.02164
20.16000,0.03670
20.16400,0.04055
20.16800,0.03309
20.17200,0.04647
20.17600,0.00597
20.18000,0.04499
20.18400,0.05274
20.18800,0.05160
20.19200,0.03797
20.19600,0.02475
20.20000,0.03758
20.20400,0.02819
20.20800,-0.00194
20.21200,0.01780
20.21600,0.02922
20.22000,0.01984
20.22400,0.01164
20.22800,0.02578
20.23200,0.02312
20.23600,0.03207
20.24000,0.02984
20.24400,0.03439
20.24800,0.05095
20.25200,0.03395
20.25600,0.03948
20.26000,0.00704
20.26400,-0.02734
20.26800,0.02374
20.27200,0.04543
20.27600,0.02523
20.28000,0.01969
20.28400,0.00749
20.28800,0.05026
20.29200,0.02200
20.29600,0.03760
20.30000,0.05544
20.30400,0.04368
20.30800,0.07796
20.31200,0.03057
20.31600,0.05248
20.32000,0.04737
20.32400,0.02053
20.32800,0.03472
20.33200,0.02260
20.33600,0.01354
20.34000,0.04017
20.34400,0.01880
20.34800,0.06803
20.35200,0.01976
20.35600,0.02382
20.36000,0.03667
20.36400,0.02461
20.36800,0.03618
20.37200,0.02309
20.37600,0.00694
20.38000,-0.01274
20.38400,0.00985
20.38800,0.06622
20.39200,0.04481
20.39600,0.03913
20.40000,0.02690
20.40400,0.03342
20.40800,0.04244
20.41200,0.00881
20.41600,0.02077
20.42000,0.01906
20.42400,0.06219
20.42800,0.01601
20.43200,0.06073
20.43600,0.02810
20.44000,0.09207
20.44400,0.03611
20.44800,0.03846
20.45200,0.06497
20.45600,0.05559
20.46000,0.05701
20.46400,0.01698
20.46800,0.06121
20.47200,0.07223
20.47600,0.03672
20.48000,0.02922
20.48400,0.01721
20.48800,0.05952
20.49200,0.04519
20.49600,0.03958
20.50000,0.01488
20.50400,0.07214
20.50800,0.05735
20.51200,0.03958
20.51600,0.06965
20.52000,0.02123
20.52400,0.05803
20.52800,0.02056
20.53200,0.06888
20.53600,0.03530
20.54000,0.06541
20.54400,0.03278
20.54800,0.04924
20.55200,0.06429
20.55600,0.02364
20.56000,0.04390
20.56400,0.02557
20.56800,0.05990
20.57200,0.03152
20.57600,0.03716
20.58000,0.04200
20.58400,0.07133
20.58800,0.02986
20.59200,0.05367
20.59600,0.05207
20.60000,0.05321
20.60400,0.05514
20.60800,0.07549
20.61200,0.09135
20.61600,0.06595
20.62000,0.11138
20.62400,0.09269
20.62800,0.12567
20.63200,0.17873
20.63600,0.11981
20.64000,0.14170
20.64400,0.13933
20.64800,0.16292
20.65200,0.13021
20.65600,0.09823
20.66000,0.09421
20.66400,0.12124
20.66800,0.11336
20.67200,0.12010
20.67600,0.07883
20.68000,0.09439
20.68400,0.05226
20.68800,0.09303
20.69200,0.06042
20.69600,0.04407
20.70000,0.05796
20.70400,0.08687
20.70800,0.03336
20.71200,0.02434
20.71600,0.02807
20.72000,0.02480
20.72400,0.04664
20.72800,0.05455
20.73200,0.04423
20.73600,0.05149
20.74000,0.07133
20.74400,0.04196
20.74800,0.02279
20.75200,0.00225
20.75600,0.05292
20.76000,0.03461
20.76400,0.04335
20.76800,0.05663
20.77200,0.05773
20.77600,0.01701
20.78000,0.02870
20.78400,0.04789
20.78800,0.04026
20.79200,0.05974
20.79600,0.01608
20.80000,-0.03053
20.80400,0.01629
20.80800,-0.05389
20.81200,-0.03925
20.81600,0.02074
20.82000,0.07285
20.82400,0.28422
20.82800,0.43581
20.83200,0.67081
20.83600,0.86919
20.84000,1.07568
20.84400,1.08719
20.84800,0.98201
20.85200,0.83454
20.85600,0.52774
20.86000,0.29618
20.86400,0.10024
20.86800,-0.05075
20.87200,-0.15145
20.87600,-0.12187
20.88000,-0.10645
20.88400,-0.11716
20.88800,-0.04871
20.89200,-0.03107
20.89600,0.00210
20.90000,0.05060
20.90400,0.04617
20.90800,0.04925
20.91200,0.05834
20.91600,0.03634
20.92000,0.08733
20.92400,0.05121
20.92800,0.09626
20.93200,0.06553
20.93600,0.07108
20.94000,0.11642
20.94400,0.09817
20.94800,0.09041
20.95200,0.10262
20.95600,0.13690
20.96000,0.17501
20.96400,0.16396
20.96800,0.15912
20.97200,0.16095
20.97600,0.18719
20.98000,0.21616
20.98400,0.24169
20.98800,0.24192
20.99200,0.29848
20.99600,0.27080
21.00000,0.29155
21.00400,0.33005
21.00800,0.34201
21.01200,0.33456
21.01600,0.36896
21.02000,0.32610
21.02400,0.38854
21.02800,0.39820
21.03200,0.38917
21.03600,0.34534
21.04000,0.37254
21.04400,0.32218
21.04800,0.33362
21.05200,0.28737
21.05600,0.27837
21.06000,0.26732
21.06400,0.20386
21.06800,0.21659
21.07200,0.23741
21.07600,0.12755
21.08000,0.17750
21.08400,0.17313
21.08800,0.14736
21.09200,0.13210
21.09600,0.14468
21.10000,0.11371
21.10400,0.06051
21.10800,0.07202
21.11200,0.07868
21.11600,0.08220
21.12000,0.06599
21.12400,0.06926
21.12800,0.10184
21.13200,0.00755
21.13600,0.08741
21.14000,0.08171
21.14400,0.07396
21.14800,0.06143
21.15200,0.06182
21.15600,0.06739
21.16000,0.06467
21.16400,0.04517
21.16800,0.07514
21.17200,0.04295
21.17600,0.05862
21.18000,0.05227
21.18400,0.03645
21.18800,0.07159
21.19200,0.05816
21.19600,0.03632
21.20000,0.05811
21.20400,0.03218
21.20800,0.08845
21.21200,0.07016
21.21600,0.09959
21.22000,0.04865
21.22400,0.07413
21.22800,0.04077
21.23200,0.04316
21.23600,0.05845
21.24000,0.06850
21.24400,0.07880
21.24800,0.05508
21.25200,0.08247
21.25600,0.07978
21.26000,0.04312
21.26400,0.05708
21.26800,0.04242
21.27200,0.09477
21.27600,0.04981
21.28000,0.07850
21.28400,0.07914
21.28800,0.05589
21.29200,0.05130
21.29600,0.06792
21.30000,0.04564
21.30400,0.03593
21.30800,0.04193
21.31200,0.06799
21.31600,0.06511
21.32000,0.09644
21.32400,0.02494
21.32800,0.07142
21.33200,0.03845
21.33600,0.08449
21.34000,0.07538
21.34400,0.06408
21.34800,0.09095
21.35200,0.05420
21.35600,0.05110
21.36000,0.04075
21.36400,0.04865
21.36800,0.06404
21.37200,0.07517
21.37600,0.08729
21.38000,0.05649
21.38400,0.04734
21.38800,0.05523
21.39200,0.05338
21.39600,0.05262
21.40000,0.05395
21.40400,0.04464
21.40800,0.06095
21.41200,0.05182
21.41600,0.05867
21.42000,0.03450
21.42400,0.06495
21.42800,0.07346
21.43200,0.07496
21.43600,0.05120
21.44000,0.03945
21.44400,0.03626
21.44800,0.03883
21.45200,0.04936
21.45600,0.05598
21.46000,0.02691
21.46400,0.07545
21.46800,0.03159
21.47200,0.04854
21.47600,0.04782
21.48000,0.07861
21.48400,0.09865
21.48800,0.05513
21.49200,0.05670
21.49600,0.05436
21.50000,0.05816
21.50400,0.05876
21.50800,0.11106
21.51200,0.04052
21.51600,0.05992
21.52000,0.04644
21.52400,0.06913
21.52800,0.05175
21.53200,0.07343
21.53600,0.04060
21.54000,0.10383
21.54400,0.06613
21.54800,0.02693
21.55200,0.07579
21.55600,0.05261
21.56000,0.03905
21.56400,0.07063
21.56800,0.05164
21.57200,0.07653
21.57600,0.05114
21.58000,0.07997
21.58400,0.06525
21.58800,0.06974
21.59200,0.06634
21.59600,0.05686
21.60000,0.05820
21.60400,0.07608
21.60800,0.08365
21.61200,0.06486
21.61600,0.12146
21.62000,0.11608
21.62400,0.06648
21.62800,0.11822
21.63200,0.10391
21.63600,0.11918
21.64000,0.10862
21.64400,0.16634
21.64800,0.12623
21.65200,0.14847
21.65600,0.14162
21.66000,0.19778
21.66400,0.18554
21.66800,0.13339
21.67200,0.14681
21.67600,0.15692
21.68000,0.13353
21.68400,0.12610
21.68800,0.10227
21.69200,0.11871
21.69600,0.08285
21.70000,0.11211
21.70400,0.13521
21.70800,0.07488
21.71200,0.10824
21.71600,0.07878
21.72000,0.05480
21.72400,0.05857
21.72800,0.04455
21.73200,0.06434
21.73600,0.07491
21.74000,0.07879
21.74400,0.05449
21.74800,0.03607
21.75200,0.05792
21.75600,0.09221
21.76000,0.06462
21.76400,0.05769
21.76800,0.01799
21.77200,0.05018
21.77600,0.06936
21.78000,0.03987
21.78400,0.08499
21.78800,0.04714
21.79200,0.04102
21.79600,0.04634
21.80000,0.05524
21.80400,0.07505
21.80800,0.04079
21.81200,0.01014
21.81600,0.03286
21.82000,0.02908
21.82400,0.03098
21.82800,-0.03575
21.83200,0.01662
21.83600,0.03334
21.84000,0.10984
21.84400,0.22592
21.84800,0.42011
21.85200,0.64739
21.85600,0.90214
21.86000,1.04127
21.86400,1.10277
21.86800,1.03727
21.87200,0.81474
21.87600,0.56521
21.88000,0.34996
21.88400,0.07290
21.88800,-0.05837
21.89200,-0.13593
21.89600,-0.15749
21.90000,-0.12995
21.90400,-0.11200
21.90800,-0.03072
21.91200,-0.04273
21.91600,-0.00320
21.92000,-0.00039
21.92400,0.01762
21.92800,0.06430
21.93200,0.06970
21.93600,0.05677
21.94000,0.08003
21.94400,0.07866
21.94800,0.05872
21.95200,0.07372
21.95600,0.08686
21.96000,0.12536
21.96400,0.08459
21.96800,0.10918
21.97200,0.12243
21.97600,0.14685
21.98000,0.14378
21.98400,0.17034
21.98800,0.14334
21.99200,0.17532
21.99600,0.15929
22.00000,0.21410
22.00400,0.27882
22.00800,0.25576
22.01200,0.27025
22.01600,0.29060
22.02000,0.30374
22.02400,0.28905
22.02800,0.31327
22.03200,0.33326
22.03600,0.34697
22.04000,0.33113
22.04400,0.34715
22.04800,0.33330
22.05200,0.31698
22.05600,0.32270
22.06000,0.30959
22.06400,0.32955
22.06800,0.32502
22.07200,0.29417
22.07600,0.26140
22.08000,0.23685
22.08400,0.19842
22.08800,0.20078
22.09200,0.22372
22.09600,0.19828
22.10000,0.16355
22.10400,0.13905
22.10800,0.12963
22.11200,0.12504
22.11600,0.10495
22.12000,0.10336
22.12400,0.07076
22.12800,0.07919
22.13200,0.06468
22.13600,0.08715
22.14000,0.03693
22.14400,0.08290
22.14800,0.05258
22.15200,0.04197
22.15600,0.05000
22.16000,0.05042
22.16400,0.04194
22.16800,0.05382
22.17200,0.03318
22.17600,0.01089
22.18000,0.05691
22.18400,0.04237
22.18800,0.07506
22.19200,0.04962
22.19600,0.00229
22.20000,0.06567
22.20400,0.02753
22.20800,0.05160
22.21200,0.08415
22.21600,0.06171
22.22000,0.01853
22.22400,0.03814
22.22800,0.00797
22.23200,0.05248
22.23600,0.05012
22.24000,0.01896
22.24400,0.04749
22.24800,0.05672
22.25200,0.05398
22.25600,0.02494
22.26000,0.02401
22.26400,0.01566
22.26800,0.01174
22.27200,0.04317
22.27600,0.03742
22.28000,0.06191
22.28400,0.04152
22.28800,0.02975
22.29200,0.00760
22.29600,0.06563
22.30000,0.03837
22.30400,0.03443
22.30800,0.01488
22.31200,0.01411
22.31600,0.04655
22.32000,0.01506
22.32400,0.04508
22.32800,0.04572
22.33200,0.02557
22.33600,0.00140
22.34000,0.04062
22.34400,0.05981
22.34800,0.01582
22.35200,0.00735
22.35600,0.05287
22.36000,0.03418
22.36400,0.01871
22.36800,0.05472
22.37200,0.02499
22.37600,0.03910
22.38000,0.02198
22.38400,0.01517
22.38800,0.03365
22.39200,0.01253
22.39600,-0.00606
22.40000,0.01819
22.40400,0.05248
22.40800,0.04949
22.41200,0.07038
22.41600,0.04689
22.42000,0.05882
22.42400,0.03190
22.42800,0.01803
22.43200,0.03554
22.43600,0.00737
22.44000,0.04020
22.44400,0.01665
22.44800,0.03037
22.45200,0.00816
22.45600,0.02219
22.46000,0.04356
22.46400,0.02001
22.46800,0.01052
22.47200,0.02914
22.47600,0.04045
22.48000,0.01945
22.48400,-0.00035
22.48800,-0.00776
22.49200,-0.00427
22.49600,0.04259
22.50000,0.01970
22.50400,0.03062
22.50800,0.04192
22.51200,0.02628
22.51600,0.02973
22.52000,0.01038
22.52400,-0.01191
22.52800,0.03178
22.53200,0.01720
22.53600,0.03015
22.54000,-0.00240
22.54400,0.01566
22.54800,0.05743
22.55200,0.00152
22.55600,0.01924
22.56000,0.04261
22.56400,0.01219
22.56800,0.01908
22.57200,-0.02561
22.57600,0.03117
22.58000,0.00707
22.58400,0.04069
22.58800,0.01373
22.59200,0.00860
22.59600,0.02444
22.60000,0.01207
22.60400,0.00738
22.60800,0.04909
22.61200,0.04050
22.61600,0.02664
22.62000,0.04417
22.62400,0.04962
22.62800,0.05108
22.63200,0.04817
22.63600,0.05677
22.64000,0.07250
22.64400,0.08483
22.64800,0.09006
22.65200,0.08075
22.65600,0.09767
22.66000,0.11343
22.66400,0.08913
22.66800,0.10865
22.67200,0.12210
22.67600,0.10653
22.68000,0.09178
22.68400,0.08864
22.68800,0.07086
22.69200,0.08932
22.69600,0.05309
22.70000,0.01783
22.70400,0.01855
22.70800,0.03943
22.71200,0.03099
22.71600,0.01173
22.72000,-0.00864
22.72400,0.00974
22.72800,-0.00604
22.73200,-0.00517
22.73600,0.00632
22.74000,-0.01015
22.74400,0.01023
22.74800,-0.01121
22.75200,-0.00593
22.75600,-0.00220
22.76000,0.03019
22.76400,0.03237
22.76800,0.01957
22.77200,-0.01358
22.77600,0.00090
22.78000,0.01810
22.78400,0.01565
22.78800,-0.03231
22.79200,-0.00154
22.79600,-0.01562
22.80000,0.01299
22.80400,0.00984
22.80800,-0.01452
22.81200,0.03372
22.81600,-0.02001
22.82000,0.02171
22.82400,-0.04484
22.82800,-0.06186
22.83200,-0.03804
22.83600,-0.08410
22.84000,-0.05018
22.84400,0.06810
22.84800,0.17876
22.85200,0.38473
22.85600,0.58022
22.86000,0.85640
22.86400,0.99350
22.86800,1.02600
22.87200,0.95236
22.87600,0.74142
22.88000,0.49410
22.88400,0.21807
22.88800,0.04233
22.89200,-0.08923
22.89600,-0.17595
22.90000,-0.19625
22.90400,-0.18321
22.90800,-0.17810
22.91200,-0.14282
22.91600,-0.06829
22.92000,-0.04863
22.92400,-0.01313
22.92800,-0.02500
22.93200,-0.02997
22.93600,0.00056
22.94000,-0.01606
22.94400,-0.03345
22.94800,-0.01145
22.95200,-0.01253
22.95600,-0.01372
22.96000,0.00299
22.96400,0.03786
22.96800,0.07170
22.97200,0.06878
22.97600,0.03710
22.98000,0.07811
22.98400,0.06709
22.98800,0.08971
22.99200,0.08416
22.99600,0.11127
23.00000,0.09793
23.00400,0.18216
23.00800,0.15068
23.01200,0.19423
23.01600,0.18938
23.02000,0.22221
23.02400,0.21030
23.02800,0.23894
23.03200,0.27588
23.03600,0.27938
23.04000,0.23805
23.04400,0.29555
23.04800,0.25544
23.05200,0.28389
23.05600,0.28378
23.06000,0.25347
23.06400,0.25017
23.06800,0.23860
23.07200,0.23693
23.07600,0.23082
23.08000,0.22193
23.08400,0.18404
23.08800,0.19751
23.09200,0.12227
23.09600,0.15691
23.10000,0.10018
23.10400,0.10367
23.10800,0.07081
23.11200,0.06093
23.11600,0.02808
23.12000,0.04213
23.12400,0.06377
23.12800,0.01827
23.13200,0.00690
23.13600,0.00106
23.14000,0.00896
23.14400,-0.01328
23.14800,-0.01374
23.15200,-0.01245
23.15600,0.00597
23.16000,-0.00326
23.16400,-0.04403
23.16800,-0.03650
23.17200,-0.02558
23.17600,-0.01046
23.18000,-0.00870
23.18400,-0.03189
23.18800,0.01283
23.19200,-0.03203
23.19600,-0.00214
23.20000,-0.00264
23.20400,0.00089
23.20800,-0.02650
23.21200,-0.01966
23.21600,-0.05993
23.22000,-0.06633
23.22400,-0.04302
23.22800,-0.01792
23.23200,-0.01171
23.23600,-0.03452
23.24000,-0.01268
23.24400,-0.02169
23.24800,-0.00398
23.25200,-0.06466
23.25600,-0.04916
23.26000,-0.05272
23.26400,-0.05374
23.26800,-0.00220
23.27200,-0.05196
23.27600,-0.05119
23.28000,-0.04243
23.28400,-0.01812
23.28800,-0.04411
23.29200,-0.02148
23.29600,-0.02536
23.30000,-0.04890
23.30400,-0.08116
23.30800,-0.05480
23.31200,-0.06044
23.31600,-0.00526
23.32000,-0.05084
23.32400,-0.05872
23.32800,-0.03049
23.33200,-0.03714
23.33600,-0.05588
23.34000,-0.01720
23.34400,-0.02117
23.34800,-0.03362
23.35200,-0.05339
23.35600,-0.05663
23.36000,-0.07838
23.36400,-0.03245
23.36800,-0.03241
23.37200,-0.05842
23.37600,-0.03981
23.38000,0.02342
23.38400,-0.06216
23.38800,-0.07469
23.39200,-0.02955
23.39600,-0.05001
23.40000,-0.05095
23.40400,-0.02987
23.40800,-0.04445
23.41200,-0.02298
23.41600,-0.03258
23.42000,-0.02012
23.42400,-0.04051
23.42800,-0.08557
23.43200,-0.01739
23.43600,-0.07701
23.44000,-0.02375
23.44400,-0.03911
23.44800,-0.07036
23.45200,-0.04313
23.45600,-0.02762
23.46000,-0.06484
23.46400,-0.04393
23.46800,-0.05966
23.47200,-0.06417
23.47600,-0.05763
23.48000,-0.02118
23.48400,-0.03236
23.48800,-0.04620
23.49200,-0.04753
23.49600,-0.04320
23.50000,-0.04004
23.50400,-0.04148
23.50800,-0.07820
23.51200,-0.02566
23.51600,-0.05851
23.52000,-0.08863
23.52400,-0.02239
23.52800,-0.05471
23.53200,-0.02955
23.53600,-0.02192
23.54000,-0.02448
23.54400,0.00598
23.54800,-0.00061
23.55200,0.00918
23.55600,0.00489
23.56000,0.02723
23.56400,0.01947
23.56800,0.04657
23.57200,0.07508
23.57600,0.06964
23.58000,0.05720
23.58400,0.01926
23.58800,0.05908
23.59200,0.04909
23.59600,0.06257
23.60000,-0.03016
23.60400,0.00292
23.60800,-0.01300
23.61200,0.00572
23.61600,-0.04389
23.62000,-0.03760
23.62400,0.00864
23.62800,-0.02063
23.63200,-0.08137
23.63600,-0.04591
23.64000,-0.02206
23.64400,-0.06186
23.64800,-0.03919
23.65200,-0.04952
23.65600,-0.07961
23.66000,-0.06467
23.66400,-0.03084
23.66800,-0.02956
23.67200,-0.06429
23.67600,-0.03106
23.68000,-0.06668
23.68400,-0.04859
23.68800,-0.05381
23.69200,-0.07825
23.69600,-0.04751
23.70000,-0.06160
23.70400,-0.10624
23.70800,-0.07080
23.71200,-0.07121
23.71600,-0.07336
23.72000,-0.07888
23.72400,-0.08054
23.72800,-0.12446
23.73200,-0.07599
23.73600,-0.11007
23.74000,-0.12090
23.74400,-0.12970
23.74800,-0.09097
23.75200,-0.01621
23.75600,0.10741
23.76000,0.29641
23.76400,0.55552
23.76800,0.79119
23.77200,0.92948
23.77600,1.00060
23.78000,0.86261
23.78400,0.69742
23.78800,0.44206
23.79200,0.22403
23.79600,0.02009
23.80000,-0.17126
23.80400,-0.22602
23.80800,-0.26631
23.81200,-0.26406
23.81600,-0.20918
23.82000,-0.18558
23.82400,-0.09780
23.82800,-0.08694
23.83200,-0.05585
23.83600,-0.05899
23.84000,-0.10475
23.84400,-0.03799
23.84800,-0.04860
23.85200,-0.09442
23.85600,-0.04233
23.86000,-0.02080
23.86400,-0.00349
23.86800,-0.05107
23.87200,-0.00944
23.87600,-0.01059
23.88000,-0.01165
23.88400,-0.00407
23.88800,0.02302
23.89200,0.03679
23.89600,0.05204
23.90000,0.04649
23.90400,0.04563
23.90800,0.11378
23.91200,0.13050
23.91600,0.11257
23.92000,0.14125
23.92400,0.17535
23.92800,0.14288
23.93200,0.20194
23.93600,0.25259
23.94000,0.22373
23.94400,0.21481
23.94800,0.27563
23.95200,0.24009
23.95600,0.24546
23.96000,0.23171
23.96400,0.23883
23.96800,0.19372
23.97200,0.19286
23.97600,0.17771
23.98000,0.20942
23.98400,0.17418
23.98800,0.18156
23.99200,0.10217
23.99600,0.11115
24.00000,0.13273
24.00400,0.07138
24.00800,0.03416
24.01200,0.03882
24.01600,0.03172
24.02000,0.02401
24.02400,0.03658
24.02800,0.02633
24.03200,0.01993
24.03600,-0.00718
24.04000,-0.03570
24.04400,-0.04230
24.04800,-0.06623
24.05200,-0.01739
24.05600,-0.02203
24.06000,-0.04731
24.06400,-0.06847
24.06800,-0.04007
24.07200,-0.04541
24.07600,-0.05293
24.08000,-0.07907
24.08400,-0.05281
24.08800,-0.06883
24.09200,-0.04385
24.09600,-0.04716
24.10000,-0.05019
24.10400,-0.06713
24.10800,-0.02914
24.11200,-0.04426
24.11600,-0.03426
24.12000,-0.04310
24.12400,-0.04620
24.12800,-0.05170
24.13200,-0.08026
24.13600,-0.09406
24.14000,-0.07762
24.14400,-0.04742
24.14800,-0.04130
24.15200,-0.05565
24.15600,-0.05742
24.16000,-0.02395
24.16400,-0.06696
24.16800,-0.09328
24.17200,-0.08951
24.17600,-0.06523
24.18000,-0.04532
24.18400,-0.04491
24.18800,-0.06337
24.19200,-0.04331
24.19600,-0.05992
24.20000,-0.07281
24.20400,-0.06636
24.20800,-0.04440
24.21200,-0.04014
24.21600,-0.08036
24.22000,-0.07822
24.22400,-0.05641
24.22800,-0.01702
24.23200,-0.08111
24.23600,-0.08327
24.24000,-0.05060
24.24400,-0.04862
24.24800,-0.07029
24.25200,-0.05905
24.25600,-0.04919
24.26000,-0.09268
24.26400,-0.05886
24.26800,-0.04660
24.27200,-0.04063
24.27600,-0.03544
24.28000,-0.05961
24.28400,-0.08650
24.28800,-0.03242
24.29200,-0.04300
24.29600,-0.07028
24.30000,-0.03774
24.30400,-0.03807
24.30800,-0.06068
24.31200,-0.10314
24.31600,-0.06704
24.32000,-0.07229
24.32400,-0.07416
24.32800,-0.05925
24.33200,-0.07884
24.33600,-0.05012
24.34000,-0.02051
24.34400,-0.08028
24.34800,-0.03703
24.35200,-0.06756
24.35600,-0.04666
24.36000,-0.05970
24.36400,-0.03205
24.36800,-0.07076
24.37200,-0.04272
24.37600,-0.07187
24.38000,-0.05248
24.38400,-0.05717
24.38800,-0.03551
24.39200,-0.08702
24.39600,-0.08316
24.40000,-0.02997
24.40400,-0.04903
24.40800,-0.02398
24.41200,-0.07665
24.41600,-0.05235
24.42000,-0.04451
24.42400,-0.02238
24.42800,-0.05721
24.43200,-0.06467
24.43600,-0.04199
24.44000,-0.05783
24.44400,-0.07038
24.44800,-0.04088
24.45200,-0.09247
24.45600,-0.07417
24.46000,-0.02740
24.46400,-0.06266
24.46800,-0.05805
24.47200,-0.04267
24.47600,-0.02524
24.48000,-0.03363
24.48400,-0.05823
24.48800,-0.04474
24.49200,-0.00670
24.49600,-0.02178
24.50000,-0.02315
24.50400,0.01536
24.50800,0.03069
24.51200,0.05968
24.51600,0.00587
24.52000,0.02109
24.52400,0.02705
24.52800,0.05122
24.53200,0.03643
24.53600,0.06595
24.54000,-0.01163
24.54400,0.05357
24.54800,0.01500
24.55200,0.01353
24.55600,0.02044
24.56000,0.00364
24.56400,-0.02928
24.56800,0.01076
24.57200,-0.01433
24.57600,-0.04149
24.58000,-0.03332
24.58400,-0.06285
24.58800,-0.06892
24.59200,-0.05312
24.59600,-0.04197
24.60000,-0.04836
24.60400,-0.06626
24.60800,-0.07819
24.61200,-0.08469
24.61600,-0.02145
24.62000,-0.04492
24.62400,-0.06748
24.62800,-0.02892
24.63200,-0.04167
24.63600,-0.06002
24.64000,-0.06364
24.64400,-0.02955
24.64800,-0.04541
24.65200,-0.01969
24.65600,-0.04458
24.66000,-0.06293
24.66400,-0.06316
24.66800,-0.06595
24.67200,-0.04883
24.67600,-0.05204
24.68000,-0.05172
24.68400,-0.06527
24.68800,-0.10960
24.69200,-0.11134
24.69600,-0.13951
24.70000,-0.11073
24.70400,-0.11261
24.70800,-0.01765
24.71200,0.11762
24.71600,0.31859
24.72000,0.55474
24.72400,0.80692
24.72800,0.92596
24.73200,0.94794
24.73600,0.89004
24.74000,0.72349
24.74400,0.47158
24.74800,0.21199
24.75200,0.03207
24.75600,-0.13251
24.76000,-0.23116
24.76400,-0.23045
24.76800,-0.26225
24.77200,-0.20246
24.77600,-0.17351
24.78000,-0.11564
24.78400,-0.05896
24.78800,-0.07953
24.79200,-0.02656
24.79600,-0.06924
24.80000,-0.01715
24.80400,-0.07398
24.80800,-0.05419
24.81200,-0.01516
24.81600,-0.03250
24.82000,-0.02333
24.82400,-0.02091
24.82800,-0.01063
24.83200,-0.00996
24.83600,-0.01672
24.84000,0.00688
24.84400,0.02607
24.84800,0.01943
24.85200,0.05987
24.85600,0.09991
24.86000,0.05056
24.86400,0.08929
24.86800,0.11218
24.87200,0.13624
24.87600,0.15598
24.88000,0.15807
24.88400,0.18839
24.88800,0.20504
24.89200,0.21752
24.89600,0.26104
24.90000,0.24399
24.90400,0.22049
24.90800,0.22293
24.91200,0.26632
24.91600,0.24696
24.92000,0.23739
24.92400,0.21576
24.92800,0.22643
24.93200,0.21850
24.93600,0.19304
24.94000,0.18371
24.94400,0.19069
24.94800,0.17129
24.95200,0.14850
24.95600,0.11661
24.96000,0.07625
24.96400,0.10034
24.96800,0.09779
24.97200,0.07876
24.97600,0.06245
24.98000,0.03293
24.98400,0.02349
24.98800,0.00610
24.99200,0.02179
24.99600,-0.01490
25.00000,0.02521
25.00400,-0.00613
25.00800,-0.03176
25.01200,-0.02917
25.01600,-0.06285
25.02000,-0.04850
25.02400,-0.04180
25.02800,0.01017
25.03200,-0.05406
25.03600,-0.02138
25.04000,-0.03830
25.04400,-0.04591
25.04800,-0.02842
25.05200,-0.07930
25.05600,-0.02253
25.06000,-0.00311
25.06400,-0.03501
25.06800,-0.04185
25.07200,-0.03751
25.07600,-0.02763
25.08000,-0.04983
25.08400,-0.03799
25.08800,-0.03056
25.09200,-0.04691
25.09600,-0.03255
25.10000,-0.03344
25.10400,-0.02610
25.10800,-0.05887
25.11200,-0.04987
25.11600,-0.04777
25.12000,-0.01639
25.12400,-0.03442
25.12800,-0.07089
25.13200,-0.06385
25.13600,-0.00171
25.14000,-0.03224
25.14400,-0.06355
25.14800,-0.05629
25.15200,-0.03577
25.15600,-0.01068
25.16000,-0.00720
25.16400,-0.04525
25.16800,-0.04380
25.17200,-0.00067
25.17600,-0.05668
25.18000,-0.00736
25.18400,-0.03111
25.18800,-0.03568
25.19200,-0.01270
25.19600,-0.02791
25.20000,-0.05322
25.20400,-0.06666
25.20800,-0.03665
25.21200,-0.02690
25.21600,-0.01049
25.22000,-0.08736
25.22400,-0.01076
25.22800,-0.02438
25.23200,-0.00717
25.23600,-0.02071
25.24000,-0.03198
25.24400,-0.02758
25.24800,-0.02820
25.25200,-0.04793
25.25600,-0.03782
25.26000,-0.03302
25.26400,-0.04406
25.26800,-0.06375
25.27200,-0.06293
25.27600,-0.02527
25.28000,-0.02497
25.28400,-0.03275
25.28800,-0.05719
25.29200,-0.01810
25.29600,-0.04203
25.30000,-0.07471
25.30400,-0.00424
25.30800,-0.06316
25.31200,0.00921
25.31600,-0.02361
25.32000,-0.04231
25.32400,-0.07940
25.32800,-0.04714
25.33200,-0.00475
25.33600,-0.00727
25.34000,-0.02826
25.34400,-0.06607
25.34800,-0.04047
25.35200,-0.03839
25.35600,-0.02387
25.36000,-0.03514
25.36400,-0.02592
25.36800,-0.06386
25.37200,-0.04489
25.37600,-0.00459
25.38000,-0.06039
25.38400,-0.01431
25.38800,0.01289
25.39200,-0.01931
25.39600,-0.05869
25.40000,-0.00767
25.40400,-0.06751
25.40800,-0.02489
25.41200,-0.03921
25.41600,-0.00734
25.42000,-0.00815
25.42400,-0.02727
25.42800,0.00399
25.43200,-0.01179
25.43600,-0.03984
25.44000,-0.04931
25.44400,0.01755
25.44800,-0.03784
25.45200,-0.02180
25.45600,-0.03166
25.46000,-0.03810
25.46400,-0.05914
25.46800,-0.03002
25.47200,-0.02800
25.47600,-0.00477
25.48000,-0.03110
25.48400,-0.04810
25.48800,-0.03393
25.49200,-0.00851
25.49600,0.00373
25.50000,0.02077
25.50400,0.00807
25.50800,0.03536
25.51200,0.03743
25.51600,0.07711
25.52000,0.05223
25.52400,0.06385
25.52800,0.07796
25.53200,0.09456
25.53600,0.05455
25.54000,0.06193
25.54400,0.06223
25.54800,0.02035
25.55200,0.07930
25.55600,0.06632
25.56000,0.03649
25.56400,0.09189
25.56800,0.04178
25.57200,0.04809
25.57600,0.03149
25.58000,0.01241
25.58400,-0.03774
25.58800,0.01506
25.59200,-0.00984
25.59600,-0.04357
25.60000,-0.02103
25.60400,-0.00858
25.60800,-0.00506
25.61200,-0.02108
25.61600,-0.03481
25.62000,-0.01002
25.62400,-0.03957
25.62800,-0.02638
25.63200,-0.01010
25.63600,-0.05268
25.64000,-0.01739
25.64400,-0.06254
25.64800,-0.04224
25.65200,-0.04818
25.65600,-0.02588
25.66000,-0.01016
25.66400,-0.02498
25.66800,-0.00637
25.67200,-0.02279
25.67600,-0.03008
25.68000,-0.01987
25.68400,-0.04033
25.68800,-0.04378
25.69200,-0.04151
25.69600,-0.09060
25.70000,-0.07129
25.70400,-0.11368
25.70800,-0.06381
25.71200,-0.01191
25.71600,0.15166
25.72000,0.38919
25.72400,0.59455
25.72800,0.82991
25.73200,0.93031
25.73600,0.98443
25.74000,0.93295
25.74400,0.75295
25.74800,0.50533
25.75200,0.20319
25.75600,0.03197
25.76000,-0.12732
25.76400,-0.20234
25.76800,-0.21668
25.77200,-0.21372
25.77600,-0.20348
25.78000,-0.14932
25.78400,-0.11863
25.78800,-0.08716
25.79200,-0.04403
25.79600,-0.00324
25.80000,-0.03464
25.80400,-0.03084
25.80800,-0.03461
25.81200,-0.04294
25.81600,-0.00470
25.82000,-0.01154
25.82400,-0.00211
25.82800,-0.01065
25.83200,0.02397
25.83600,-0.00114
25.84000,0.04171
25.84400,0.02841
25.84800,0.06798
25.85200,0.04832
25.85600,0.08826
25.86000,0.10361
25.86400,0.10993
25.86800,0.16055
25.87200,0.15008
25.87600,0.14769
25.88000,0.19660
25.88400,0.18510
25.88800,0.20780
25.89200,0.23438
25.89600,0.25196
25.90000,0.29398
25.90400,0.23709
25.90800,0.27318
25.91200,0.30458
25.91600,0.28131
25.92000,0.28926
25.92400,0.30849
25.92800,0.24788
25.93200,0.26278
25.93600,0.26520
25.94000,0.22444
25.94400,0.18641
25.94800,0.18397
25.95200,0.18956
25.95600,0.17152
25.96000,0.18543
25.96400,0.15804
25.96800,0.08529
25.97200,0.11925
25.97600,0.10167
25.98000,0.10172
25.98400,0.05468
25.98800,0.03559
25.99200,0.03938
25.99600,0.05809
26.00000,0.03262
26.00400,0.04739
26.00800,0.02431
26.01200,-0.00665
26.01600,-0.01825
26.02000,0.03457
26.02400,-0.03300
26.02800,-0.01228
26.03200,-0.01292
26.03600,-0.02553
26.04000,-0.01954
26.04400,-0.00889
26.04800,0.03661
26.05200,-0.01082
26.05600,-0.01978
26.06000,-0.00729
26.06400,0.00847
26.06800,-0.02553
26.07200,-0.01738
26.07600,-0.04347
26.08000,0.00427
26.08400,0.00410
26.08800,0.02001
26.09200,-0.03221
26.09600,0.03335
26.10000,0.00845
26.10400,-0.01371
26.10800,-0.01585
26.11200,-0.01406
26.11600,-0.03154
26.12000,0.00717
26.12400,-0.01941
26.12800,-0.02139
26.13200,0.00283
26.13600,-0.00490
26.14000,-0.01829
26.14400,-0.01128
26.14800,-0.01615
26.15200,0.01965
26.15600,0.01331
26.16000,-0.02012
26.16400,-0.00667
26.16800,0.02083
26.17200,-0.01115
26.17600,0.02910
26.18000,0.00348
26.18400,0.00792
26.18800,-0.04535
26.19200,0.01175
26.19600,0.00212
26.20000,0.00694
26.20400,0.00523
26.20800,0.00623
26.21200,-0.01371
26.21600,0.01381
26.22000,-0.00222
26.22400,-0.02357
26.22800,-0.02294
26.23200,0.00022
26.23600,0.00382
26.24000,-0.04527
26.24400,-0.04261
26.24800,0.01816
26.25200,-0.00223
26.25600,0.05337
26.26000,-0.03153
26.26400,-0.00626
26.26800,-0.01297
26.27200,0.00971
26.27600,0.02659
26.28000,0.03052
26.28400,-0.02022
26.28800,0.02357
26.29200,-0.02389
26.29600,0.00599
26.30000,0.00355
26.30400,0.01243
26.30800,-0.01502
26.31200,0.02669
26.31600,-0.00037
26.32000,0.00078
26.32400,-0.00386
26.32800,-0.01913
26.33200,0.01581
26.33600,0.00843
26.34000,0.01100
26.34400,0.03844
26.34800,-0.01443
26.35200,-0.00281
26.35600,0.00303
26.36000,0.01967
26.36400,-0.00019
26.36800,0.02159
26.37200,0.01259
26.37600,-0.03023
26.38000,-0.00923
26.38400,-0.03508
26.38800,-0.00101
26.39200,-0.00323
26.39600,0.01672
26.40000,0.00896
26.40400,0.00499
26.40800,0.03152
26.41200,0.01974
26.41600,-0.01425
26.42000,-0.00180
26.42400,0.02076
26.42800,0.05120
26.43200,0.01866
26.43600,0.02479
26.44000,0.04003
26.44400,0.05802
26.44800,0.04981
26.45200,0.06685
26.45600,0.06280
26.46000,0.06997
26.46400,0.07438
26.46800,0.11049
26.47200,0.09293
26.47600,0.11839
26.48000,0.11701
26.48400,0.12709
26.48800,0.05246
26.49200,0.08002
26.49600,0.06778
26.50000,0.07960
26.50400,0.08910
26.50800,0.11349
26.51200,0.08489
26.51600,0.07300
26.52000,0.04645
26.52400,0.02515
26.52800,0.03790
26.53200,-0.01916
26.53600,0.03831
26.54000,0.01809
26.54400,0.02829
26.54800,-0.00490
26.55200,-0.00673
26.55600,0.00159
26.56000,0.01314
26.56400,0.02077
26.56800,0.00713
26.57200,0.02097
26.57600,0.02753
26.58000,-0.00817
26.58400,0.01273
26.58800,-0.01551
26.59200,0.00447
26.59600,0.03302
26.60000,0.00166
26.60400,0.05215
26.60800,0.02571
26.61200,0.03325
26.61600,0.01746
26.62000,0.03099
26.62400,0.03218
26.62800,0.00677
26.63200,-0.01620
26.63600,-0.03190
26.64000,-0.00142
26.64400,-0.05648
26.64800,-0.06036
26.65200,-0.03242
26.65600,0.02985
26.66000,0.19337
26.66400,0.40612
26.66800,0.61948
26.67200,0.83214
26.67600,1.00842
26.68000,1.05451
26.68400,0.95710
26.68800,0.78482
26.69200,0.51201
26.69600,0.29424
26.70000,0.04491
26.70400,-0.09024
26.70800,-0.15970
26.71200,-0.19160
26.71600,-0.18812
26.72000,-0.08741
26.72400,-0.05619
26.72800,-0.08184
26.73200,-0.01630
26.73600,-0.02311
26.74000,0.02054
26.74400,-0.00303
26.74800,0.03866
26.75200,0.04126
26.75600,0.06755
26.76000,0.06104
26.76400,0.03262
26.76800,0.06469
26.77200,0.04294
26.77600,0.05634
26.78000,0.05652
26.78400,0.04098
26.78800,0.09731
26.79200,0.05755
26.79600,0.10541
26.80000,0.13445
26.80400,0.14189
26.80800,0.12550
26.81200,0.16086
26.81600,0.20482
26.82000,0.23143
26.82400,0.25936
26.82800,0.21083
26.83200,0.27244
26.83600,0.27007
26.84000,0.30876
26.84400,0.27332
26.84800,0.31364
26.85200,0.33771
26.85600,0.31601
26.86000,0.32320
26.86400,0.30995
26.86800,0.34658
26.87200,0.29193
26.87600,0.29029
26.88000,0.28972
26.88400,0.27605
26.88800,0.30783
26.89200,0.25533
26.89600,0.21624
26.90000,0.22589
26.90400,0.20332
26.90800,0.18458
26.91200,0.16087
26.91600,0.15512
26.92000,0.10830
26.92400,0.09388
26.92800,0.09662
26.93200,0.07220
26.93600,0.09763
26.94000,0.11341
26.94400,0.09224
26.94800,0.07072
26.95200,0.06344
26.95600,0.03923
26.96000,0.02389
26.96400,0.05716
26.96800,0.01551
26.97200,0.04855
26.97600,0.03864
26.98000,0.05515
26.98400,0.04081
26.98800,0.04147
26.99200,0.02779
26.99600,0.00532
27.00000,0.03223
27.00400,0.05256
27.00800,0.05940
27.01200,0.06610
27.01600,0.01994
27.02000,0.02119
27.02400,0.05334
27.02800,0.03103
27.03200,0.09018
27.03600,0.04645
27.04000,0.01095
27.04400,0.02990
27.04800,0.07154
27.05200,0.00552
27.05600,0.04437
27.06000,0.01452
27.06400,0.07302
27.06800,0.03332
27.07200,0.02221
27.07600,0.00911
27.08000,0.02883
27.08400,-0.00701
27.08800,0.03391
27.09200,0.08599
27.09600,0.04552
27.10000,0.03862
27.10400,0.02142
27.10800,0.05090
27.11200,0.03526
27.11600,0.02811
27.12000,0.07185
27.12400,0.05370
27.12800,0.02801
27.13200,0.07443
27.13600,0.04467
27.14000,0.05579
27.14400,0.04904
27.14800,0.06942
27.15200,0.05858
27.15600,0.04000
27.16000,0.06100
27.16400,0.03958
27.16800,0.05003
27.17200,0.07972
27.17600,0.02716
27.18000,0.02782
27.18400,0.04044
27.18800,0.03871
27.19200,0.07403
27.19600,0.01774
27.20000,0.09377
27.20400,0.08027
27.20800,0.04071
27.21200,0.05332
27.21600,0.04285
27.22000,0.06321
27.22400,0.06320
27.22800,0.06519
27.23200,0.06561
27.23600,0.08867
27.24000,0.04776
27.24400,0.06496
27.24800,0.04784
27.25200,0.05243
27.25600,0.05614
27.26000,0.05104
27.26400,0.05899
27.26800,0.03579
27.27200,0.04966
27.27600,0.04099
27.28000,0.03024
27.28400,0.03938
27.28800,0.04369
27.29200,0.05067
27.29600,0.02333
27.30000,0.04893
27.30400,0.03213
27.30800,0.03833
27.31200,0.05820
27.31600,0.07639
27.32000,0.06046
27.32400,0.04549
27.32800,0.04667
27.33200,0.08162
27.33600,0.02393
27.34000,0.07807
27.34400,0.02667
27.34800,0.04373
27.35200,0.05722
27.35600,0.05216
27.36000,0.08911
27.36400,0.06655
27.36800,0.05617
27.37200,0.07603
27.37600,0.05842
27.38000,0.04234
27.38400,0.08057
27.38800,0.08876
27.39200,0.08548
27.39600,0.03896
27.40000,0.10117
27.40400,0.05848
27.40800,0.08516
27.41200,0.09799
27.41600,0.12664
27.42000,0.05532
27.42400,0.07484
27.42800,0.12663
27.43200,0.12268
27.43600,0.11674
27.44000,0.07542
27.44400,0.15019
27.44800,0.14572
27.45200,0.10426
27.45600,0.21154
27.46000,0.11172
27.46400,0.14865
27.46800,0.15589
27.47200,0.15479
27.47600,0.15751
27.48000,0.12883
27.48400,0.10707
27.48800,0.10807
27.49200,0.06473
27.49600,0.07561
27.50000,0.12861
27.50400,0.07009
27.50800,0.07665
27.51200,0.11108
27.51600,0.09141
27.52000,0.07079
27.52400,0.08109
27.52800,0.06025
27.53200,0.04702
27.53600,0.08385
27.54000,0.06667
27.54400,0.09520
27.54800,0.05874
27.55200,0.05660
27.55600,0.07074
27.56000,0.06037
27.56400,0.05808
27.56800,0.04682
27.57200,0.06940
27.57600,0.07084
27.58000,0.10048
27.58400,0.06420
27.58800,0.03035
27.59200,0.07372
27.59600,0.10894
27.60000,0.05400
27.60400,0.04363
27.60800,0.04972
27.61200,-0.01379
27.61600,0.02034
27.62000,0.00531
27.62400,-0.03463
27.62800,0.00753
27.63200,0.01187
27.63600,0.07380
27.64000,0.23637
27.64400,0.45943
27.64800,0.71360
27.65200,0.91833
27.65600,1.05102
27.66000,1.08219
27.66400,1.00704
27.66800,0.84418
27.67200,0.56712
27.67600,0.33177
27.68000,0.12902
27.68400,-0.05568
27.68800,-0.12821
27.69200,-0.12914
27.69600,-0.12024
27.70000,-0.08546
27.70400,-0.05113
27.70800,-0.00427
27.71200,0.06235
27.71600,0.07279
27.72000,0.02729
27.72400,0.06751
27.72800,0.07321
27.73200,0.07557
27.73600,0.05090
27.74000,0.07864
27.74400,0.08791
27.74800,0.07617
27.75200,0.10113
27.75600,0.05363
27.76000,0.07953
27.76400,0.11981
27.76800,0.13554
27.77200,0.13604
27.77600,0.14306
27.78000,0.16970
27.78400,0.20251
27.78800,0.21527
27.79200,0.21328
27.79600,0.22353
27.80000,0.27163
27.80400,0.27963
27.80800,0.30409
27.81200,0.29836
27.81600,0.30276
27.82000,0.33747
27.82400,0.33379
27.82800,0.37848
27.83200,0.37994
27.83600,0.32487
27.84000,0.38224
27.84400,0.39388
27.84800,0.38362
27.85200,0.34677
27.85600,0.32937
27.86000,0.35309
27.86400,0.33975
27.86800,0.30531
27.87200,0.26459
27.87600,0.23947
27.88000,0.25655
27.88400,0.21697
27.88800,0.20209
27.89200,0.20697
27.89600,0.20253
27.90000,0.12626
27.90400,0.13968
27.90800,0.16561
27.91200,0.12792
27.91600,0.11199
27.92000,0.12248
27.92400,0.08009
27.92800,0.07209
27.93200,0.09108
27.93600,0.11680
27.94000,0.10244
27.94400,0.07943
27.94800,0.09699
27.95200,0.06719
27.95600,0.05059
27.96000,0.03977
27.96400,0.07699
27.96800,0.08861
27.97200,0.07777
27.97600,0.06933
27.98000,0.06190
27.98400,0.09089
27.98800,0.06846
27.99200,0.04103
27.99600,0.09605
28.00000,0.05634
28.00400,0.07667
28.00800,0.06899
28.01200,0.08956
28.01600,0.07365
28.02000,0.09284
28.02400,0.07284
28.02800,0.05961
28.03200,0.05866
28.03600,0.08134
28.04000,0.05227
28.04400,0.08668
28.04800,0.06371
28.05200,0.05012
28.05600,0.05118
28.06000,0.06539
28.06400,0.10285
28.06800,0.08326
28.07200,0.06842
28.07600,0.05020
28.08000,0.10525
28.08400,0.06239
28.08800,0.06775
28.09200,0.05938
28.09600,0.09377
28.10000,0.07103
28.10400,0.05852
28.10800,0.07105
28.11200,0.04776
28.11600,0.04657
28.12000,0.06401
28.12400,0.01055
28.12800,0.09004
28.13200,0.10597
28.13600,0.04504
28.14000,0.06396
28.14400,0.03573
28.14800,0.06993
28.15200,0.07063
28.15600,0.08092
28.16000,0.04015
28.16400,0.05437
28.16800,0.05340
28.17200,0.06115
28.17600,0.11066
28.18000,0.06185
28.18400,0.06487
28.18800,0.05558
28.19200,0.08106
28.19600,0.11571
28.20000,0.08801
28.20400,0.09523
28.20800,0.04397
28.21200,0.08568
28.21600,0.06533
28.22000,0.08924
28.22400,0.08529
28.22800,0.07729
28.23200,0.03143
